# OpenSignals Text File Format. Version 1
# {"98:D3:51:FE:6E:5C": {"position": 0, "device": "bitalino_rev", "device name": "98:D3:51:FE:6E:5C", "device connection": "BTH98:D3:51:FE:6E:5C", "sampling rate": 1000, "resolution": [4, 1, 1, 1, 1, 10, 10, 10, 10, 6, 6], "firmware version": 1282, "comments": "", "keywords": "", "mode": 0, "sync interval": 2, "date": "2026-6-12", "time": "12:12:36.712", "channels": [1, 2, 3, 4, 5, 6], "sensor": ["RAW", "RAW", "RAW", "RAW", "RAW", "RAW"], "label": ["A1", "A2", "A3", "A4", "A5", "A6"], "column": ["nSeq", "I1", "I2", "O1", "O2", "A1", "A2", "A3", "A4", "A5", "A6"], "special": [{}, {}, {}, {}, {}, {}], "digital IO": [0, 0, 1, 1]}}
# EndOfHeader
0	0	0	0	0	2	515	508	516	31	0	
1	0	0	0	0	0	515	509	516	31	0	
2	0	0	0	0	0	514	509	519	32	0	
3	0	0	0	0	0	516	510	522	32	0	
4	0	0	0	0	0	514	509	518	31	0	
5	0	0	0	0	0	512	511	514	32	0	
6	0	0	0	0	0	513	511	511	32	0	
7	0	0	0	0	0	515	511	509	31	0	
8	0	0	0	0	2	515	508	505	32	0	
9	0	0	0	0	0	513	508	507	31	0	
10	0	0	0	0	0	513	511	508	32	0	
11	0	0	0	0	0	513	508	505	32	0	
12	0	0	0	0	0	514	510	509	32	0	
13	0	0	0	0	0	515	511	513	32	0	
14	0	0	0	0	0	512	509	512	32	0	
15	0	0	0	0	0	513	510	513	32	0	
0	0	0	0	0	2	514	510	514	31	0	
1	0	0	0	0	0	515	511	518	32	0	
2	0	0	0	0	0	515	512	523	32	0	
3	0	0	0	0	0	513	510	519	32	0	
4	0	0	0	0	0	515	508	513	32	0	
5	0	0	0	0	0	513	507	510	31	0	
6	0	0	0	0	0	513	509	510	31	0	
7	0	0	0	0	0	514	511	506	32	0	
8	0	0	0	0	2	512	508	502	32	0	
9	0	0	0	0	0	513	510	499	32	0	
10	0	0	0	0	0	514	510	498	32	0	
11	0	0	0	0	0	513	512	497	32	0	
12	0	0	0	0	0	515	511	498	31	0	
13	0	0	0	0	0	514	510	496	31	0	
14	0	0	0	0	0	513	511	498	32	0	
15	0	0	0	0	0	513	509	503	31	0	
0	0	0	0	0	2	514	509	512	31	0	
1	0	0	0	0	0	514	510	513	32	0	
2	0	0	0	0	0	515	509	514	32	0	
3	0	0	0	0	0	514	509	517	32	0	
4	0	0	0	0	0	515	508	513	32	0	
5	0	0	0	0	0	512	510	513	31	0	
6	0	0	0	0	0	515	509	515	32	0	
7	0	0	0	0	0	513	511	510	31	0	
8	0	0	0	0	2	512	510	511	31	0	
9	0	0	0	0	0	511	510	505	31	0	
10	0	0	0	0	0	515	512	505	31	0	
11	0	0	0	0	0	512	509	504	32	0	
12	0	0	0	0	0	514	511	504	31	0	
13	0	0	0	0	0	515	510	510	32	0	
14	0	0	0	0	0	516	509	510	32	0	
15	0	0	0	0	0	516	511	512	32	0	
0	0	0	0	0	1	515	508	513	31	0	
1	0	0	0	0	0	512	508	515	31	0	
2	0	0	0	0	0	513	510	519	32	0	
3	0	0	0	0	0	514	508	520	32	0	
4	0	0	0	0	0	511	510	519	32	0	
5	0	0	0	0	0	515	511	519	31	0	
6	0	0	0	0	0	512	508	513	31	0	
7	0	0	0	0	0	513	510	511	31	0	
8	0	0	0	0	1	513	510	509	31	0	
9	0	0	0	0	0	513	509	507	32	0	
10	0	0	0	0	0	515	508	507	32	0	
11	0	0	0	0	0	513	508	505	32	0	
12	0	0	0	0	0	513	509	501	32	0	
13	0	0	0	0	0	514	509	504	32	0	
14	0	0	0	0	0	514	511	504	32	0	
15	0	0	0	0	0	513	512	504	31	0	
0	0	0	0	0	1	510	512	508	32	0	
1	0	0	0	0	0	514	510	509	31	0	
2	0	0	0	0	0	514	509	513	32	0	
3	0	0	0	0	0	513	511	513	31	0	
4	0	0	0	0	0	514	508	517	31	0	
5	0	0	0	0	0	514	510	515	31	0	
6	0	0	0	0	0	514	508	511	32	0	
7	0	0	0	0	0	512	508	508	31	0	
8	0	0	0	0	2	514	509	508	32	0	
9	0	0	0	0	0	513	511	507	32	0	
10	0	0	0	0	0	514	510	502	31	0	
11	0	0	0	0	0	515	508	502	32	0	
12	0	0	0	0	0	513	507	503	32	0	
13	0	0	0	0	0	513	508	502	32	0	
14	0	0	0	0	0	515	509	503	32	0	
15	0	0	0	0	0	515	509	505	32	0	
0	0	0	0	0	2	512	508	504	32	0	
1	0	0	0	0	0	513	511	506	31	0	
2	0	0	0	0	0	512	510	511	31	0	
3	0	0	0	0	0	512	510	512	31	0	
4	0	0	0	0	0	514	510	513	31	0	
5	0	0	0	0	0	514	508	512	32	0	
6	0	0	0	0	0	514	507	511	32	0	
7	0	0	0	0	0	515	510	513	32	0	
8	0	0	0	0	2	515	510	512	32	0	
9	0	0	0	0	0	516	511	510	32	0	
10	0	0	0	0	0	512	510	503	32	0	
11	0	0	0	0	0	515	510	502	32	0	
12	0	0	0	0	0	513	512	504	32	0	
13	0	0	0	0	0	513	512	499	32	0	
14	0	0	0	0	0	512	510	497	31	0	
15	0	0	0	0	0	513	509	501	31	0	
0	0	0	0	0	2	515	509	502	31	0	
1	0	0	0	0	0	515	510	506	32	0	
2	0	0	0	0	0	515	510	511	32	0	
3	0	0	0	0	0	515	511	513	31	0	
4	0	0	0	0	0	515	510	518	32	0	
5	0	0	0	0	0	513	512	515	31	0	
6	0	0	0	0	0	513	511	515	31	0	
7	0	0	0	0	0	516	511	514	31	0	
8	0	0	0	0	2	514	510	510	31	0	
9	0	0	0	0	0	515	510	511	31	0	
10	0	0	0	0	0	512	510	508	32	0	
11	0	0	0	0	0	515	511	511	32	0	
12	0	0	0	0	0	515	508	509	32	0	
13	0	0	0	0	0	514	508	502	32	0	
14	0	0	0	0	0	513	509	500	31	0	
15	0	0	0	0	0	512	509	501	32	0	
0	0	0	0	0	2	512	508	503	31	0	
1	0	0	0	0	0	513	510	505	31	0	
2	0	0	0	0	0	513	510	508	31	0	
3	0	0	0	0	0	514	510	510	32	0	
4	0	0	0	0	0	513	509	513	31	0	
5	0	0	0	0	0	513	509	515	32	0	
6	0	0	0	0	0	514	509	515	32	0	
7	0	0	0	0	0	515	507	514	32	0	
8	0	0	0	0	2	514	509	513	31	0	
9	0	0	0	0	0	516	510	512	32	0	
10	0	0	0	0	0	513	509	514	31	0	
11	0	0	0	0	0	515	510	513	32	0	
12	0	0	0	0	0	515	509	511	32	0	
13	0	0	0	0	0	513	510	509	31	0	
14	0	0	0	0	0	511	510	505	32	0	
15	0	0	0	0	0	513	509	504	31	0	
0	0	0	0	0	2	513	509	504	31	0	
1	0	0	0	0	0	512	510	507	31	0	
2	0	0	0	0	0	512	510	505	31	0	
3	0	0	0	0	0	513	510	509	31	0	
4	0	0	0	0	0	515	511	513	32	0	
5	0	0	0	0	0	515	511	515	32	0	
6	0	0	0	0	0	515	509	517	32	0	
7	0	0	0	0	0	514	509	519	32	0	
8	0	0	0	0	2	515	510	518	31	0	
9	0	0	0	0	0	513	510	515	31	0	
10	0	0	0	0	0	515	509	515	31	0	
11	0	0	0	0	0	514	509	518	32	0	
12	0	0	0	0	0	515	510	513	31	0	
13	0	0	0	0	0	514	508	507	32	0	
14	0	0	0	0	0	515	511	505	32	0	
15	0	0	0	0	0	513	509	504	31	0	
0	0	0	0	0	2	515	511	503	32	0	
1	0	0	0	0	0	512	511	505	32	0	
2	0	0	0	0	0	510	511	507	32	0	
3	0	0	0	0	0	513	510	507	31	0	
4	0	0	0	0	0	513	513	508	31	0	
5	0	0	0	0	0	513	511	512	31	0	
6	0	0	0	0	0	514	511	513	32	0	
7	0	0	0	0	0	513	510	516	32	0	
8	0	0	0	0	1	515	510	521	32	0	
9	0	0	0	0	0	515	509	521	32	0	
10	0	0	0	0	0	515	508	519	31	0	
11	0	0	0	0	0	512	509	516	32	0	
12	0	0	0	0	0	513	508	512	32	0	
13	0	0	0	0	0	515	508	509	32	0	
14	0	0	0	0	0	514	510	506	32	0	
15	0	0	0	0	0	515	510	505	32	0	
0	0	0	0	0	1	515	508	506	31	0	
1	0	0	0	0	0	513	509	504	31	0	
2	0	0	0	0	0	513	509	503	31	0	
3	0	0	0	0	0	514	510	505	31	0	
4	0	0	0	0	0	511	509	511	32	0	
5	0	0	0	0	0	511	510	510	32	0	
6	0	0	0	0	0	514	511	514	32	0	
7	0	0	0	0	0	515	510	517	32	0	
8	0	0	0	0	1	513	509	516	31	0	
9	0	0	0	0	0	511	511	522	32	0	
10	0	0	0	0	0	513	510	516	32	0	
11	0	0	0	0	0	514	509	513	32	0	
12	0	0	0	0	0	512	511	510	32	0	
13	0	0	0	0	0	512	512	512	32	0	
14	0	0	0	0	0	515	511	508	32	0	
15	0	0	0	0	0	514	509	505	31	0	
0	0	0	0	0	2	515	505	505	31	0	
1	0	0	0	0	0	514	508	506	31	0	
2	0	0	0	0	0	514	507	507	31	0	
3	0	0	0	0	0	512	507	505	31	0	
4	0	0	0	0	0	513	510	513	32	0	
5	0	0	0	0	0	513	511	512	32	0	
6	0	0	0	0	0	514	511	517	31	0	
7	0	0	0	0	0	515	512	519	31	0	
8	0	0	0	0	2	511	511	518	31	0	
9	0	0	0	0	0	514	511	520	32	0	
10	0	0	0	0	0	514	510	519	32	0	
11	0	0	0	0	0	515	511	517	31	0	
12	0	0	0	0	0	513	508	519	31	0	
13	0	0	0	0	0	515	508	510	31	0	
14	0	0	0	0	0	514	510	510	32	0	
15	0	0	0	0	0	516	508	506	32	0	
0	0	0	0	0	2	512	508	508	31	0	
1	0	0	0	0	0	512	508	507	32	0	
2	0	0	0	0	0	511	508	504	31	0	
3	0	0	0	0	0	513	508	507	31	0	
4	0	0	0	0	0	515	509	507	31	0	
5	0	0	0	0	0	513	509	509	31	0	
6	0	0	0	0	0	514	510	508	31	0	
7	0	0	0	0	0	514	511	512	32	0	
8	0	0	0	0	2	515	512	518	32	0	
9	0	0	0	0	0	515	511	518	31	0	
10	0	0	0	0	0	513	512	518	32	0	
11	0	0	0	0	0	516	510	518	32	0	
12	0	0	0	0	0	515	508	516	32	0	
13	0	0	0	0	0	513	508	512	32	0	
14	0	0	0	0	0	513	509	515	32	0	
15	0	0	0	0	0	513	511	511	32	0	
0	0	0	0	0	2	512	508	507	32	0	
1	0	0	0	0	0	513	508	504	31	0	
2	0	0	0	0	0	513	509	503	31	0	
3	0	0	0	0	0	512	510	502	32	0	
4	0	0	0	0	0	514	509	503	31	0	
5	0	0	0	0	0	514	511	509	31	0	
6	0	0	0	0	0	514	510	509	31	0	
7	0	0	0	0	0	515	510	509	32	0	
8	0	0	0	0	2	512	510	513	32	0	
9	0	0	0	0	0	514	510	516	32	0	
10	0	0	0	0	0	515	511	520	32	0	
11	0	0	0	0	0	513	511	518	31	0	
12	0	0	0	0	0	516	511	518	31	0	
13	0	0	0	0	0	515	509	518	31	0	
14	0	0	0	0	0	513	507	516	32	0	
15	0	0	0	0	0	514	508	515	32	0	
0	0	0	0	0	2	514	510	511	31	0	
1	0	0	0	0	0	513	511	507	31	0	
2	0	0	0	0	0	513	511	503	32	0	
3	0	0	0	0	0	512	511	503	32	0	
4	0	0	0	0	0	512	511	504	31	0	
5	0	0	0	0	0	513	509	508	31	0	
6	0	0	0	0	0	514	509	510	32	0	
7	0	0	0	0	0	515	508	514	32	0	
8	0	0	0	0	2	515	509	516	32	0	
9	0	0	0	0	0	515	509	515	32	0	
10	0	0	0	0	0	514	508	518	31	0	
11	0	0	0	0	0	515	508	517	31	0	
12	0	0	0	0	0	513	508	518	32	0	
13	0	0	0	0	0	514	509	518	31	0	
14	0	0	0	0	0	513	508	516	31	0	
15	0	0	0	0	0	512	511	514	32	0	
0	0	0	0	0	2	515	511	511	31	0	
1	0	0	0	0	0	511	508	505	32	0	
2	0	0	0	0	0	512	509	504	31	0	
3	0	0	0	0	0	513	510	505	32	0	
4	0	0	0	0	0	514	511	502	32	0	
5	0	0	0	0	0	513	512	503	32	0	
6	0	0	0	0	0	514	512	507	32	0	
7	0	0	0	0	0	514	510	511	32	0	
8	0	0	0	0	2	511	512	513	32	0	
9	0	0	0	0	0	514	512	514	31	0	
10	0	0	0	0	0	515	511	516	31	0	
11	0	0	0	0	0	513	510	518	32	0	
12	0	0	0	0	0	512	508	518	32	0	
13	0	0	0	0	0	514	510	519	32	0	
14	0	0	0	0	0	514	510	516	31	0	
15	0	0	0	0	0	515	507	514	31	0	
0	0	0	0	0	2	513	508	511	32	0	
1	0	0	0	0	0	515	508	510	31	0	
2	0	0	0	0	0	514	508	507	32	0	
3	0	0	0	0	0	513	511	505	32	0	
4	0	0	0	0	0	512	510	502	32	0	
5	0	0	0	0	0	512	512	502	32	0	
6	0	0	0	0	0	513	510	504	32	0	
7	0	0	0	0	0	512	509	509	32	0	
8	0	0	0	0	1	514	510	514	31	0	
9	0	0	0	0	0	514	510	514	31	0	
10	0	0	0	0	0	513	510	513	31	0	
11	0	0	0	0	0	515	509	513	31	0	
12	0	0	0	0	0	513	510	516	32	0	
13	0	0	0	0	0	515	508	519	31	0	
14	0	0	0	0	0	514	510	515	31	0	
15	0	0	0	0	0	515	512	515	31	0	
0	0	0	0	0	1	512	510	514	31	0	
1	0	0	0	0	0	514	509	513	32	0	
2	0	0	0	0	0	516	509	514	32	0	
3	0	0	0	0	0	513	509	508	32	0	
4	0	0	0	0	0	513	508	504	32	0	
5	0	0	0	0	0	516	509	505	32	0	
6	0	0	0	0	0	513	512	505	32	0	
7	0	0	0	0	0	512	511	505	31	0	
8	0	0	0	0	1	515	509	508	31	0	
9	0	0	0	0	0	513	508	511	31	0	
10	0	0	0	0	0	514	511	510	31	0	
11	0	0	0	0	0	513	509	515	32	0	
12	0	0	0	0	0	512	507	520	32	0	
13	0	0	0	0	0	516	509	520	31	0	
14	0	0	0	0	0	514	511	517	32	0	
15	0	0	0	0	0	513	511	516	32	0	
0	0	0	0	0	2	513	511	517	32	0	
1	0	0	0	0	0	512	510	514	32	0	
2	0	0	0	0	0	513	510	513	32	0	
3	0	0	0	0	0	514	509	508	32	0	
4	0	0	0	0	0	513	510	505	32	0	
5	0	0	0	0	0	512	512	504	31	0	
6	0	0	0	0	0	514	510	500	31	0	
7	0	0	0	0	0	515	510	502	32	0	
8	0	0	0	0	2	511	511	505	32	0	
9	0	0	0	0	0	512	509	507	32	0	
10	0	0	0	0	0	516	509	509	32	0	
11	0	0	0	0	0	514	511	513	31	0	
12	0	0	0	0	0	513	508	515	32	0	
13	0	0	0	0	0	513	509	519	31	0	
14	0	0	0	0	0	515	509	520	31	0	
15	0	0	0	0	0	514	508	519	32	0	
0	0	0	0	0	2	515	508	517	32	0	
1	0	0	0	0	0	515	510	512	32	0	
2	0	0	0	0	0	516	509	511	32	0	
3	0	0	0	0	0	512	508	510	32	0	
4	0	0	0	0	0	512	509	508	32	0	
5	0	0	0	0	0	515	508	506	31	0	
6	0	0	0	0	0	514	508	501	32	0	
7	0	0	0	0	0	513	510	499	32	0	
8	0	0	0	0	2	512	512	500	31	0	
9	0	0	0	0	0	513	510	505	31	0	
10	0	0	0	0	0	513	509	508	31	0	
11	0	0	0	0	0	512	511	510	31	0	
12	0	0	0	0	0	513	512	510	32	0	
13	0	0	0	0	0	515	510	519	32	0	
14	0	0	0	0	0	515	510	520	31	0	
15	0	0	0	0	0	515	509	520	31	0	
0	0	0	0	0	2	514	508	515	31	0	
1	0	0	0	0	0	513	508	513	31	0	
2	0	0	0	0	0	513	508	515	32	0	
3	0	0	0	0	0	513	509	515	32	0	
4	0	0	0	0	0	515	510	511	32	0	
5	0	0	0	0	0	514	509	504	32	0	
6	0	0	0	0	0	515	509	505	32	0	
7	0	0	0	0	0	514	510	502	31	0	
8	0	0	0	0	2	514	511	505	31	0	
9	0	0	0	0	0	514	511	505	31	0	
10	0	0	0	0	0	514	512	509	32	0	
11	0	0	0	0	0	514	512	510	31	0	
12	0	0	0	0	0	512	511	515	32	0	
13	0	0	0	0	0	513	508	519	32	0	
14	0	0	0	0	0	513	508	519	31	0	
15	0	0	0	0	0	515	510	518	31	0	
0	0	0	0	0	2	515	507	521	31	0	
1	0	0	0	0	0	514	510	517	32	0	
2	0	0	0	0	0	516	510	515	32	0	
3	0	0	0	0	0	513	510	510	32	0	
4	0	0	0	0	0	516	510	512	32	0	
5	0	0	0	0	0	515	509	505	32	0	
6	0	0	0	0	0	513	511	505	32	0	
7	0	0	0	0	0	515	511	508	32	0	
8	0	0	0	0	2	513	510	506	32	0	
9	0	0	0	0	0	516	510	502	31	0	
10	0	0	0	0	0	512	509	505	31	0	
11	0	0	0	0	0	512	512	508	31	0	
12	0	0	0	0	0	514	510	509	32	0	
13	0	0	0	0	0	513	509	510	31	0	
14	0	0	0	0	0	515	510	514	32	0	
15	0	0	0	0	0	511	508	518	31	0	
0	0	0	0	0	2	512	510	519	31	0	
1	0	0	0	0	0	515	508	516	31	0	
2	0	0	0	0	0	511	507	515	32	0	
3	0	0	0	0	0	513	508	519	32	0	
4	0	0	0	0	0	513	510	513	31	0	
5	0	0	0	0	0	514	511	512	32	0	
6	0	0	0	0	0	515	510	506	32	0	
7	0	0	0	0	0	513	509	501	32	0	
8	0	0	0	0	2	514	510	502	31	0	
9	0	0	0	0	0	514	511	505	31	0	
10	0	0	0	0	0	514	512	505	31	0	
11	0	0	0	0	0	514	510	506	31	0	
12	0	0	0	0	0	515	511	508	32	0	
13	0	0	0	0	0	516	509	511	32	0	
14	0	0	0	0	0	515	510	514	32	0	
15	0	0	0	0	0	515	508	518	32	0	
0	0	0	0	0	2	515	508	517	32	0	
1	0	0	0	0	0	513	510	517	32	0	
2	0	0	0	0	0	514	512	519	32	0	
3	0	0	0	0	0	513	511	517	32	0	
4	0	0	0	0	0	514	510	511	31	0	
5	0	0	0	0	0	515	511	510	31	0	
6	0	0	0	0	0	513	509	506	31	0	
7	0	0	0	0	0	515	510	508	31	0	
8	0	0	0	0	0	514	510	504	31	0	
9	0	0	0	0	0	513	511	504	31	0	
10	0	0	0	0	0	512	508	503	31	0	
11	0	0	0	0	0	513	509	500	31	0	
12	0	0	0	0	0	513	510	503	31	0	
13	0	0	0	0	0	514	509	508	32	0	
14	0	0	0	0	0	514	508	510	32	0	
15	0	0	0	0	0	513	508	515	32	0	
0	0	0	0	0	1	514	510	516	31	0	
1	0	0	0	0	0	512	511	517	32	0	
2	0	0	0	0	0	513	509	518	31	0	
3	0	0	0	0	0	513	509	514	32	0	
4	0	0	0	0	0	513	506	511	32	0	
5	0	0	0	0	0	514	507	510	31	0	
6	0	0	0	0	0	516	508	508	32	0	
7	0	0	0	0	0	515	509	507	32	0	
8	0	0	0	0	1	514	510	505	32	0	
9	0	0	0	0	0	514	510	504	32	0	
10	0	0	0	0	0	514	509	504	31	0	
11	0	0	0	0	0	515	510	505	31	0	
12	0	0	0	0	0	515	511	507	32	0	
13	0	0	0	0	0	515	512	507	32	0	
14	0	0	0	0	0	512	510	512	32	0	
15	0	0	0	0	0	512	508	511	31	0	
0	0	0	0	0	2	514	509	519	31	0	
1	0	0	0	0	0	515	508	518	31	0	
2	0	0	0	0	0	514	508	520	32	0	
3	0	0	0	0	0	515	509	521	32	0	
4	0	0	0	0	0	513	509	516	31	0	
5	0	0	0	0	0	513	509	515	32	0	
6	0	0	0	0	0	515	509	510	31	0	
7	0	0	0	0	0	515	511	511	31	0	
8	0	0	0	0	2	512	510	508	31	0	
9	0	0	0	0	0	513	512	505	31	0	
10	0	0	0	0	0	515	511	502	32	0	
11	0	0	0	0	0	512	509	502	31	0	
12	0	0	0	0	0	512	512	503	31	0	
13	0	0	0	0	0	513	512	505	32	0	
14	0	0	0	0	0	513	511	507	31	0	
15	0	0	0	0	0	515	513	508	31	0	
0	0	0	0	0	2	515	508	509	32	0	
1	0	0	0	0	0	514	509	516	31	0	
2	0	0	0	0	2	512	509	522	32	0	
3	0	0	0	0	0	514	508	519	31	0	
4	0	0	0	0	0	514	508	515	31	0	
5	0	0	0	0	0	515	507	512	31	0	
6	0	0	0	0	0	517	508	510	31	0	
7	0	0	0	0	0	515	509	512	32	0	
8	0	0	0	0	2	513	509	512	32	0	
9	0	0	0	0	0	513	509	511	32	0	
10	0	0	0	0	0	512	510	503	32	0	
11	0	0	0	0	0	513	512	503	32	0	
12	0	0	0	0	0	513	510	504	32	0	
13	0	0	0	0	0	512	511	505	32	0	
14	0	0	0	0	0	515	510	510	31	0	
15	0	0	0	0	0	514	511	510	32	0	
0	0	0	0	0	2	513	511	516	31	0	
1	0	0	0	0	0	512	511	515	32	0	
2	0	0	0	0	0	515	510	516	32	0	
3	0	0	0	0	0	514	509	519	32	0	
4	0	0	0	0	0	515	510	520	32	0	
5	0	0	0	0	0	516	511	521	32	0	
6	0	0	0	0	0	515	511	520	32	0	
7	0	0	0	0	0	515	508	514	32	0	
8	0	0	0	0	2	515	510	512	32	0	
9	0	0	0	0	0	516	511	508	32	0	
10	0	0	0	0	0	512	508	504	32	0	
11	0	0	0	0	0	513	512	505	32	0	
12	0	0	0	0	0	512	508	503	31	0	
13	0	0	0	0	0	513	508	507	31	0	
14	0	0	0	0	0	511	511	507	31	0	
15	0	0	0	0	0	512	507	506	31	0	
0	0	0	0	0	2	513	508	511	31	0	
1	0	0	0	0	0	513	507	511	31	0	
2	0	0	0	0	0	515	506	514	31	0	
3	0	0	0	0	0	515	507	512	31	0	
4	0	0	0	0	0	515	508	512	31	0	
5	0	0	0	0	0	512	510	515	31	0	
6	0	0	0	0	0	512	508	511	31	0	
7	0	0	0	0	0	515	509	511	31	0	
8	0	0	0	0	2	514	508	512	31	0	
9	0	0	0	0	0	513	507	510	32	0	
10	0	0	0	0	0	514	511	508	31	0	
11	0	0	0	0	0	514	510	502	31	0	
12	0	0	0	0	0	514	510	506	31	0	
13	0	0	0	0	0	512	510	508	31	0	
14	0	0	0	0	0	512	510	507	31	0	
15	0	0	0	0	0	512	510	511	31	0	
0	0	0	0	0	2	513	510	511	31	0	
1	0	0	0	0	0	513	511	513	32	0	
2	0	0	0	0	0	515	508	513	32	0	
3	0	0	0	0	0	516	510	514	31	0	
4	0	0	0	0	0	513	510	518	32	0	
5	0	0	0	0	0	513	511	518	32	0	
6	0	0	0	0	0	514	510	519	32	0	
7	0	0	0	0	0	514	508	518	32	0	
8	0	0	0	0	2	512	508	516	31	0	
9	0	0	0	0	0	512	509	510	32	0	
10	0	0	0	0	0	514	509	510	32	0	
11	0	0	0	0	0	514	510	510	32	0	
12	0	0	0	0	0	514	510	507	32	0	
13	0	0	0	0	0	513	511	504	32	0	
14	0	0	0	0	0	515	511	505	32	0	
15	0	0	0	0	0	513	511	509	32	0	
0	0	0	0	0	1	515	510	508	32	0	
1	0	0	0	0	0	513	510	508	31	0	
2	0	0	0	0	0	514	511	513	31	0	
3	0	0	0	0	0	513	511	515	32	0	
4	0	0	0	0	0	514	510	517	32	0	
5	0	0	0	0	0	515	510	520	32	0	
6	0	0	0	0	0	515	509	525	32	0	
7	0	0	0	0	0	514	508	522	31	0	
8	0	0	0	0	1	518	509	518	32	0	
9	0	0	0	0	0	514	512	513	32	0	
10	0	0	0	0	0	515	510	511	32	0	
11	0	0	0	0	0	514	512	508	31	0	
12	0	0	0	0	0	512	510	505	32	0	
13	0	0	0	0	0	513	509	504	32	0	
14	0	0	0	0	0	511	508	502	31	0	
15	0	0	0	0	0	512	510	505	32	0	
0	0	0	0	0	1	512	511	508	31	0	
1	0	0	0	0	0	516	510	510	32	0	
2	0	0	0	0	0	512	510	508	32	0	
3	0	0	0	0	0	513	509	513	32	0	
4	0	0	0	0	0	514	509	516	32	0	
5	0	0	0	0	0	512	510	518	31	0	
6	0	0	0	0	0	514	511	520	31	0	
7	0	0	0	0	0	514	509	518	31	0	
8	0	0	0	0	2	512	510	515	31	0	
9	0	0	0	0	0	512	508	514	31	0	
10	0	0	0	0	0	511	510	512	32	0	
11	0	0	0	0	0	514	510	510	31	0	
12	0	0	0	0	0	513	509	510	32	0	
13	0	0	0	0	0	512	508	505	31	0	
14	0	0	0	0	0	514	511	504	31	0	
15	0	0	0	0	0	516	510	504	32	0	
0	0	0	0	0	2	513	507	504	31	0	
1	0	0	0	0	0	511	507	504	31	0	
2	0	0	0	0	0	513	507	505	31	0	
3	0	0	0	0	0	513	508	507	31	0	
4	0	0	0	0	0	514	510	510	31	0	
5	0	0	0	0	0	516	512	518	32	0	
6	0	0	0	0	0	515	510	524	32	0	
7	0	0	0	0	0	515	511	523	32	0	
8	0	0	0	0	2	514	510	522	32	0	
9	0	0	0	0	0	515	508	518	32	0	
10	0	0	0	0	0	513	510	513	31	0	
11	0	0	0	0	0	515	511	509	31	0	
12	0	0	0	0	0	514	510	508	31	0	
13	0	0	0	0	0	512	508	504	32	0	
14	0	0	0	0	0	512	508	504	32	0	
15	0	0	0	0	0	513	507	502	31	0	
0	0	0	0	0	2	512	511	502	32	0	
1	0	0	0	0	0	513	509	504	32	0	
2	0	0	0	0	0	512	510	504	32	0	
3	0	0	0	0	0	514	510	508	32	0	
4	0	0	0	0	0	514	510	510	32	0	
5	0	0	0	0	0	515	509	512	32	0	
6	0	0	0	0	0	514	508	517	31	0	
7	0	0	0	0	0	515	510	519	31	0	
8	0	0	0	0	2	515	510	519	31	0	
9	0	0	0	0	0	512	511	516	31	0	
10	0	0	0	0	0	512	510	513	31	0	
11	0	0	0	0	0	513	510	511	31	0	
12	0	0	0	0	0	514	510	511	32	0	
13	0	0	0	0	0	514	510	511	32	0	
14	0	0	0	0	0	514	511	513	32	0	
15	0	0	0	0	0	515	511	508	32	0	
0	0	0	0	0	2	515	510	509	32	0	
1	0	0	0	0	0	513	511	508	32	0	
2	0	0	0	0	0	514	510	512	31	0	
3	0	0	0	0	0	513	509	513	31	0	
4	0	0	0	0	0	515	510	511	32	0	
5	0	0	0	0	0	515	509	512	31	0	
6	0	0	0	0	0	515	508	515	31	0	
7	0	0	0	0	0	513	510	518	31	0	
8	0	0	0	0	2	515	510	517	32	0	
9	0	0	0	0	0	513	510	521	32	0	
10	0	0	0	0	0	516	511	519	32	0	
11	0	0	0	0	0	515	509	515	31	0	
12	0	0	0	0	0	514	508	514	32	0	
13	0	0	0	0	0	513	509	512	31	0	
14	0	0	0	0	0	514	510	513	32	0	
15	0	0	0	0	0	513	510	509	32	0	
0	0	0	0	0	2	513	510	507	31	0	
1	0	0	0	0	0	512	510	503	31	0	
2	0	0	0	0	0	513	510	504	31	0	
3	0	0	0	0	0	515	511	505	32	0	
4	0	0	0	0	0	512	509	505	32	0	
5	0	0	0	0	0	512	508	507	32	0	
6	0	0	0	0	0	513	508	510	32	0	
7	0	0	0	0	0	513	509	515	32	0	
8	0	0	0	0	2	514	510	519	32	0	
9	0	0	0	0	0	513	509	518	32	0	
10	0	0	0	0	0	515	509	516	31	0	
11	0	0	0	0	0	514	511	517	31	0	
12	0	0	0	0	0	514	508	514	32	0	
13	0	0	0	0	0	515	511	514	32	0	
14	0	0	0	0	0	516	509	512	31	0	
15	0	0	0	0	0	512	508	504	31	0	
0	0	0	0	0	2	512	508	505	31	0	
1	0	0	0	0	0	514	510	504	31	0	
2	0	0	0	0	0	511	510	503	32	0	
3	0	0	0	0	0	513	508	503	31	0	
4	0	0	0	0	0	513	506	504	31	0	
5	0	0	0	0	0	512	508	508	31	0	
6	0	0	0	0	0	514	509	511	32	0	
7	0	0	0	0	0	512	508	513	32	0	
8	0	0	0	0	2	515	510	520	32	0	
9	0	0	0	0	0	513	510	519	32	0	
10	0	0	0	0	0	513	511	519	32	0	
11	0	0	0	0	0	514	510	516	31	0	
12	0	0	0	0	0	514	511	513	32	0	
13	0	0	0	0	0	515	513	510	31	0	
14	0	0	0	0	0	515	513	511	32	0	
15	0	0	0	0	0	514	513	507	31	0	
0	0	0	0	0	1	515	512	503	31	0	
1	0	0	0	0	0	513	512	505	32	0	
2	0	0	0	0	0	515	511	501	32	0	
3	0	0	0	0	0	513	511	497	31	0	
4	0	0	0	0	0	516	510	500	31	0	
5	0	0	0	0	0	513	510	505	32	0	
6	0	0	0	0	0	513	509	509	31	0	
7	0	0	0	0	0	512	509	506	31	0	
8	0	0	0	0	1	515	510	514	32	0	
9	0	0	0	0	0	515	507	517	32	0	
10	0	0	0	0	0	515	508	517	32	0	
11	0	0	0	0	0	513	509	518	31	0	
12	0	0	0	0	0	514	507	513	31	0	
13	0	0	0	0	0	515	510	513	31	0	
14	0	0	0	0	0	513	507	513	31	0	
15	0	0	0	0	0	513	508	508	31	0	
0	0	0	0	0	1	513	510	503	31	0	
1	0	0	0	0	0	515	511	504	32	0	
2	0	0	0	0	0	515	511	501	31	0	
3	0	0	0	0	0	512	509	502	31	0	
4	0	0	0	0	0	513	510	504	31	0	
5	0	0	0	0	0	513	509	506	32	0	
6	0	0	0	0	0	513	509	507	32	0	
7	0	0	0	0	0	513	509	510	32	0	
8	0	0	0	0	2	515	508	511	32	0	
9	0	0	0	0	0	513	511	518	32	0	
10	0	0	0	0	0	516	510	523	32	0	
11	0	0	0	0	0	514	508	521	31	0	
12	0	0	0	0	0	515	510	521	32	0	
13	0	0	0	0	0	512	509	520	32	0	
14	0	0	0	0	0	511	510	516	32	0	
15	0	0	0	0	0	513	509	515	32	0	
0	0	0	0	0	2	515	509	513	32	0	
1	0	0	0	0	0	514	508	512	32	0	
2	0	0	0	0	0	514	508	506	31	0	
3	0	0	0	0	0	516	510	505	31	0	
4	0	0	0	0	0	513	511	506	31	0	
5	0	0	0	0	0	512	510	502	31	0	
6	0	0	0	0	0	514	512	506	31	0	
7	0	0	0	0	0	516	510	511	31	0	
8	0	0	0	0	2	514	510	514	32	0	
9	0	0	0	0	0	514	512	520	31	0	
10	0	0	0	0	0	510	511	519	32	0	
11	0	0	0	0	0	513	510	519	32	0	
12	0	0	0	0	0	513	508	518	31	0	
13	0	0	0	0	0	514	510	518	31	0	
14	0	0	0	0	0	513	509	515	31	0	
15	0	0	0	0	0	516	511	516	32	0	
0	0	0	0	0	2	515	511	510	32	0	
1	0	0	0	0	0	515	509	508	32	0	
2	0	0	0	0	0	516	508	504	31	0	
3	0	0	0	0	0	514	510	506	32	0	
4	0	0	0	0	0	512	507	504	31	0	
5	0	0	0	0	0	515	508	507	31	0	
6	0	0	0	0	0	514	508	504	32	0	
7	0	0	0	0	0	514	510	508	32	0	
8	0	0	0	0	2	513	510	509	32	0	
9	0	0	0	0	0	514	508	513	32	0	
10	0	0	0	0	0	513	508	513	32	0	
11	0	0	0	0	0	515	511	516	32	0	
12	0	0	0	0	0	513	509	519	32	0	
13	0	0	0	0	0	514	511	520	32	0	
14	0	0	0	0	0	513	509	515	31	0	
15	0	0	0	0	0	514	508	511	31	0	
0	0	0	0	0	2	513	508	508	31	0	
1	0	0	0	0	0	514	507	505	31	0	
2	0	0	0	0	0	513	511	504	31	0	
3	0	0	0	0	0	514	509	504	32	0	
4	0	0	0	0	0	515	510	503	31	0	
5	0	0	0	0	0	513	512	503	32	0	
6	0	0	0	0	0	512	510	500	32	0	
7	0	0	0	0	0	515	510	507	31	0	
8	0	0	0	0	2	514	510	507	31	0	
9	0	0	0	0	0	515	508	508	31	0	
10	0	0	0	0	0	514	509	512	32	0	
11	0	0	0	0	0	513	509	514	32	0	
12	0	0	0	0	0	514	509	517	32	0	
13	0	0	0	0	0	512	512	515	31	0	
14	0	0	0	0	0	513	511	514	32	0	
15	0	0	0	0	0	513	510	514	32	0	
0	0	0	0	0	2	515	509	513	32	0	
1	0	0	0	0	0	513	510	512	32	0	
2	0	0	0	0	0	512	508	508	32	0	
3	0	0	0	0	0	514	508	507	32	0	
4	0	0	0	0	0	513	508	504	31	0	
5	0	0	0	0	0	515	508	504	31	0	
6	0	0	0	0	0	514	511	505	32	0	
7	0	0	0	0	0	514	511	503	31	0	
8	0	0	0	0	2	513	511	506	31	0	
9	0	0	0	0	0	513	511	509	31	0	
10	0	0	0	0	0	512	512	512	32	0	
11	0	0	0	0	0	514	510	513	32	0	
12	0	0	0	0	0	512	510	515	31	0	
13	0	0	0	0	0	514	510	515	31	0	
14	0	0	0	0	0	514	508	519	32	0	
15	0	0	0	0	0	515	509	518	31	0	
0	0	0	0	0	2	515	508	513	32	0	
1	0	0	0	0	0	514	509	513	32	0	
2	0	0	0	0	0	516	507	512	32	0	
3	0	0	0	0	0	515	509	505	32	0	
4	0	0	0	0	0	515	513	504	32	0	
5	0	0	0	0	0	514	511	504	32	0	
6	0	0	0	0	0	511	512	507	32	0	
7	0	0	0	0	0	512	510	506	32	0	
8	0	0	0	0	2	513	508	507	31	0	
9	0	0	0	0	0	513	509	508	31	0	
10	0	0	0	0	0	514	510	511	31	0	
11	0	0	0	0	0	515	509	511	31	0	
12	0	0	0	0	0	513	510	514	32	0	
13	0	0	0	0	0	515	512	520	32	0	
14	0	0	0	0	0	514	511	515	31	0	
15	0	0	0	0	0	513	511	519	31	0	
0	0	0	0	0	1	516	511	517	31	0	
1	0	0	0	0	0	513	510	515	32	0	
2	0	0	0	0	0	514	511	509	31	0	
3	0	0	0	0	0	514	510	505	31	0	
4	0	0	0	0	0	515	508	507	32	0	
5	0	0	0	0	0	515	510	506	32	0	
6	0	0	0	0	0	515	508	503	32	0	
7	0	0	0	0	0	513	507	502	31	0	
8	0	0	0	0	1	512	508	503	31	0	
9	0	0	0	0	0	515	511	507	31	0	
10	0	0	0	0	0	514	509	506	32	0	
11	0	0	0	0	0	514	507	505	31	0	
12	0	0	0	0	0	514	510	510	32	0	
13	0	0	0	0	0	513	509	513	32	0	
14	0	0	0	0	0	514	510	517	32	0	
15	0	0	0	0	0	514	508	517	31	0	
0	0	0	0	0	2	512	509	515	32	0	
1	0	0	0	0	0	513	511	511	31	0	
2	0	0	0	0	0	513	511	515	32	0	
3	0	0	0	0	0	515	510	515	31	0	
4	0	0	0	0	0	516	510	510	32	0	
5	0	0	0	0	0	514	507	509	32	0	
6	0	0	0	0	0	512	507	504	32	0	
7	0	0	0	0	0	513	510	504	32	0	
8	0	0	0	0	2	513	511	505	32	0	
9	0	0	0	0	0	515	511	504	32	0	
10	0	0	0	0	0	515	511	507	32	0	
11	0	0	0	0	0	512	511	508	32	0	
12	0	0	0	0	0	514	510	511	32	0	
13	0	0	0	0	0	513	510	511	31	0	
14	0	0	0	0	0	510	509	514	31	0	
15	0	0	0	0	0	513	508	516	32	0	
0	0	0	0	0	2	512	508	516	31	0	
1	0	0	0	0	0	514	508	517	32	0	
2	0	0	0	0	0	514	511	515	31	0	
3	0	0	0	0	0	515	508	515	32	0	
4	0	0	0	0	0	515	510	513	32	0	
5	0	0	0	0	0	514	511	507	31	0	
6	0	0	0	0	0	514	511	505	31	0	
7	0	0	0	0	0	513	511	506	32	0	
8	0	0	0	0	2	513	510	503	31	0	
9	0	0	0	0	0	514	511	504	32	0	
10	0	0	0	0	0	515	509	504	31	0	
11	0	0	0	0	0	515	508	508	32	0	
12	0	0	0	0	0	515	509	508	32	0	
13	0	0	0	0	0	512	508	508	31	0	
14	0	0	0	0	0	514	508	516	32	0	
15	0	0	0	0	0	514	509	516	31	0	
0	0	0	0	0	2	515	511	518	31	0	
1	0	0	0	0	0	513	512	518	32	0	
2	0	0	0	0	0	512	511	514	32	0	
3	0	0	0	0	0	511	512	515	32	0	
4	0	0	0	0	0	516	512	515	31	0	
5	0	0	0	0	0	516	511	511	32	0	
6	0	0	0	0	0	516	511	508	32	0	
7	0	0	0	0	0	516	509	505	32	0	
8	0	0	0	0	2	515	509	503	32	0	
9	0	0	0	0	0	512	509	504	31	0	
10	0	0	0	0	0	514	508	504	31	0	
11	0	0	0	0	0	513	508	504	32	0	
12	0	0	0	0	0	512	508	505	31	0	
13	0	0	0	0	0	512	508	506	31	0	
14	0	0	0	0	0	512	510	512	32	0	
15	0	0	0	0	0	513	509	512	31	0	
0	0	0	0	0	2	513	508	515	31	0	
1	0	0	0	0	0	512	510	516	31	0	
2	0	0	0	0	0	513	513	517	31	0	
3	0	0	0	0	0	516	512	518	31	0	
4	0	0	0	0	0	514	512	514	32	0	
5	0	0	0	0	0	516	510	516	32	0	
6	0	0	0	0	0	513	509	513	32	0	
7	0	0	0	0	0	513	510	508	32	0	
8	0	0	0	0	2	514	510	504	31	0	
9	0	0	0	0	0	514	508	505	32	0	
10	0	0	0	0	0	513	510	504	31	0	
11	0	0	0	0	0	513	509	506	32	0	
12	0	0	0	0	0	513	508	506	32	0	
13	0	0	0	0	0	515	510	507	32	0	
14	0	0	0	0	0	512	509	512	31	0	
15	0	0	0	0	0	512	509	513	31	0	
0	0	0	0	0	2	514	508	513	31	0	
1	0	0	0	0	0	515	508	513	32	0	
2	0	0	0	0	0	514	508	516	31	0	
3	0	0	0	0	0	514	510	518	32	0	
4	0	0	0	0	0	516	512	518	32	0	
5	0	0	0	0	0	515	511	511	32	0	
6	0	0	0	0	0	514	511	508	31	0	
7	0	0	0	0	0	513	508	508	31	0	
8	0	0	0	0	2	514	511	505	31	0	
9	0	0	0	0	0	511	510	506	31	0	
10	0	0	0	0	0	513	510	508	32	0	
11	0	0	0	0	0	513	510	508	32	0	
12	0	0	0	0	0	513	510	510	32	0	
13	0	0	0	0	0	516	509	511	32	0	
14	0	0	0	0	0	514	509	512	32	0	
15	0	0	0	0	0	515	509	513	31	0	
0	0	0	0	0	2	513	509	515	32	0	
1	0	0	0	0	0	515	510	518	31	0	
2	0	0	0	0	0	515	510	520	32	0	
3	0	0	0	0	0	515	511	520	32	0	
4	0	0	0	0	0	512	511	516	31	0	
5	0	0	0	0	0	512	509	516	31	0	
6	0	0	0	0	0	513	510	511	31	0	
7	0	0	0	0	0	514	510	508	32	0	
8	0	0	0	0	1	513	510	506	32	0	
9	0	0	0	0	0	515	509	502	32	0	
10	0	0	0	0	0	513	508	504	32	0	
11	0	0	0	0	0	512	509	503	31	0	
12	0	0	0	0	0	515	510	504	32	0	
13	0	0	0	0	0	514	509	504	32	0	
14	0	0	0	0	0	513	508	508	31	0	
15	0	0	0	0	0	513	508	512	31	0	
0	0	0	0	0	1	514	508	512	31	0	
1	0	0	0	0	0	513	508	515	32	0	
2	0	0	0	0	0	514	508	518	32	0	
3	0	0	0	0	0	515	508	519	32	0	
4	0	0	0	0	0	513	508	518	31	0	
5	0	0	0	0	0	513	509	518	32	0	
6	0	0	0	0	0	515	511	518	31	0	
7	0	0	0	0	0	515	511	516	31	0	
8	0	0	0	0	1	513	512	513	31	0	
9	0	0	0	0	0	514	513	514	32	0	
10	0	0	0	0	0	515	513	511	32	0	
11	0	0	0	0	0	513	511	507	32	0	
12	0	0	0	0	0	514	510	505	31	0	
13	0	0	0	0	0	513	508	504	31	0	
14	0	0	0	0	0	514	510	508	32	0	
15	0	0	0	0	0	513	510	510	32	0	
0	0	0	0	0	2	516	509	511	32	0	
1	0	0	0	0	0	515	508	514	32	0	
2	0	0	0	0	0	517	508	515	32	0	
3	0	0	0	0	0	517	510	522	31	0	
4	0	0	0	0	0	515	508	520	31	0	
5	0	0	0	0	0	514	509	519	32	0	
6	0	0	0	0	0	514	508	518	31	0	
7	0	0	0	0	0	514	510	517	31	0	
8	0	0	0	0	2	513	511	517	31	0	
9	0	0	0	0	0	515	509	514	31	0	
10	0	0	0	0	0	513	509	511	32	0	
11	0	0	0	0	0	513	508	510	32	0	
12	0	0	0	0	0	512	509	506	32	0	
13	0	0	0	0	0	515	509	504	32	0	
14	0	0	0	0	0	513	510	507	32	0	
15	0	0	0	0	0	512	510	511	31	0	
0	0	0	0	0	2	515	508	507	31	0	
1	0	0	0	0	0	514	509	509	31	0	
2	0	0	0	0	0	515	508	513	31	0	
3	0	0	0	0	0	513	510	515	31	0	
4	0	0	0	0	0	515	510	517	32	0	
5	0	0	0	0	0	513	511	519	32	0	
6	0	0	0	0	0	512	508	513	32	0	
7	0	0	0	0	0	511	509	511	32	0	
8	0	0	0	0	2	512	508	508	31	0	
9	0	0	0	0	0	513	511	505	31	0	
10	0	0	0	0	0	513	511	502	32	0	
11	0	0	0	0	0	512	511	498	31	0	
12	0	0	0	0	0	515	511	502	32	0	
13	0	0	0	0	0	514	511	501	32	0	
14	0	0	0	0	0	515	511	500	31	0	
15	0	0	0	0	0	515	511	505	32	0	
0	0	0	0	0	2	514	511	508	32	0	
1	0	0	0	0	0	514	509	509	32	0	
2	0	0	0	0	0	515	508	515	32	0	
3	0	0	0	0	0	514	508	515	31	0	
4	0	0	0	0	0	513	509	522	32	0	
5	0	0	0	0	0	511	508	520	32	0	
6	0	0	0	0	0	516	510	515	31	0	
7	0	0	0	0	0	515	513	516	31	0	
8	0	0	0	0	2	515	509	518	31	0	
9	0	0	0	0	0	513	507	518	32	0	
10	0	0	0	0	0	513	508	515	32	0	
11	0	0	0	0	0	513	511	513	31	0	
12	0	0	0	0	0	512	511	508	32	0	
13	0	0	0	0	0	515	513	508	31	0	
14	0	0	0	0	0	514	510	505	31	0	
15	0	0	0	0	0	514	509	508	32	0	
0	0	0	0	0	2	513	509	506	31	0	
1	0	0	0	0	0	514	508	510	32	0	
2	0	0	0	0	0	514	509	514	32	0	
3	0	0	0	0	0	515	510	515	32	0	
4	0	0	0	0	0	515	508	519	32	0	
5	0	0	0	0	0	515	508	521	31	0	
6	0	0	0	0	0	515	508	520	31	0	
7	0	0	0	0	0	513	508	517	31	0	
8	0	0	0	0	2	513	510	516	32	0	
9	0	0	0	0	0	513	510	514	32	0	
10	0	0	0	0	0	514	508	511	32	0	
11	0	0	0	0	0	513	512	511	32	0	
12	0	0	0	0	0	513	512	505	31	0	
13	0	0	0	0	0	513	513	504	32	0	
14	0	0	0	0	0	513	510	504	32	0	
15	0	0	0	0	0	513	509	501	32	0	
0	0	0	0	0	2	515	510	499	31	0	
1	0	0	0	0	0	512	509	505	31	0	
2	0	0	0	0	0	513	508	510	31	0	
3	0	0	0	0	0	512	510	507	31	0	
4	0	0	0	0	0	514	511	511	32	0	
5	0	0	0	0	0	514	512	512	32	0	
6	0	0	0	0	0	512	509	515	32	0	
7	0	0	0	0	0	515	508	518	31	0	
8	0	0	0	0	2	513	509	514	31	0	
9	0	0	0	0	0	514	507	517	31	0	
10	0	0	0	0	0	514	510	513	32	0	
11	0	0	0	0	0	513	509	512	31	0	
12	0	0	0	0	0	514	508	511	31	0	
13	0	0	0	0	0	513	510	506	31	0	
14	0	0	0	0	0	513	512	504	32	0	
15	0	0	0	0	0	515	510	500	32	0	
0	0	0	0	0	2	515	511	505	32	0	
1	0	0	0	0	0	515	511	507	32	0	
2	0	0	0	0	0	512	510	508	32	0	
3	0	0	0	0	0	513	509	504	31	0	
4	0	0	0	0	0	513	508	509	32	0	
5	0	0	0	0	0	515	510	513	31	0	
6	0	0	0	0	0	515	509	516	32	0	
7	0	0	0	0	0	515	509	517	31	0	
8	0	0	0	0	1	515	508	515	32	0	
9	0	0	0	0	0	513	508	517	31	0	
10	0	0	0	0	0	514	511	517	32	0	
11	0	0	0	0	0	516	511	514	32	0	
12	0	0	0	0	0	514	510	513	32	0	
13	0	0	0	0	0	516	511	506	32	0	
14	0	0	0	0	0	513	512	503	31	0	
15	0	0	0	0	0	513	511	501	31	0	
0	0	0	0	0	1	513	510	500	31	0	
1	0	0	0	0	0	512	509	499	31	0	
2	0	0	0	0	0	513	509	503	31	0	
3	0	0	0	0	0	515	509	508	32	0	
4	0	0	0	0	0	513	509	509	32	0	
5	0	0	0	0	0	513	510	512	32	0	
6	0	0	0	0	0	515	511	517	32	0	
7	0	0	0	0	0	515	512	520	31	0	
8	0	0	0	0	1	514	512	519	31	0	
9	0	0	0	0	0	514	510	519	31	0	
10	0	0	0	0	0	513	509	521	32	0	
11	0	0	0	0	0	513	508	520	32	0	
12	0	0	0	0	0	515	510	517	32	0	
13	0	0	0	0	0	515	510	511	32	0	
14	0	0	0	0	0	513	509	508	32	0	
15	0	0	0	0	0	513	511	504	32	0	
0	0	0	0	0	2	512	509	504	32	0	
1	0	0	0	0	0	515	508	505	32	0	
2	0	0	0	0	0	514	508	504	32	0	
3	0	0	0	0	0	515	509	506	32	0	
4	0	0	0	0	0	515	510	504	32	0	
5	0	0	0	0	0	512	508	508	32	0	
6	0	0	0	0	0	514	508	508	32	0	
7	0	0	0	0	0	515	508	518	31	0	
8	0	0	0	0	2	515	509	519	32	0	
9	0	0	0	0	0	515	509	519	31	0	
10	0	0	0	0	0	514	509	517	31	0	
11	0	0	0	0	0	516	509	517	31	0	
12	0	0	0	0	0	513	510	515	31	0	
13	0	0	0	0	0	514	510	512	31	0	
14	0	0	0	0	0	511	511	507	31	0	
15	0	0	0	0	0	512	512	508	31	0	
0	0	0	0	0	2	512	511	502	32	0	
1	0	0	0	0	0	516	511	502	32	0	
2	0	0	0	0	0	515	510	503	32	0	
3	0	0	0	0	0	514	510	505	32	0	
4	0	0	0	0	0	513	511	505	31	0	
5	0	0	0	0	0	515	507	509	32	0	
6	0	0	0	0	0	513	509	510	32	0	
7	0	0	0	0	0	512	510	513	31	0	
8	0	0	0	0	2	512	510	517	32	0	
9	0	0	0	0	0	514	508	515	32	0	
10	0	0	0	0	0	514	509	516	32	0	
11	0	0	0	0	0	513	508	515	32	0	
12	0	0	0	0	0	513	508	514	32	0	
13	0	0	0	0	0	514	508	512	31	0	
14	0	0	0	0	0	514	509	510	31	0	
15	0	0	0	0	0	514	510	507	31	0	
0	0	0	0	0	2	516	509	503	31	0	
1	0	0	0	0	0	512	510	503	31	0	
2	0	0	0	0	0	511	511	502	32	0	
3	0	0	0	0	0	513	514	503	31	0	
4	0	0	0	0	0	515	510	501	32	0	
5	0	0	0	0	0	515	509	505	31	0	
6	0	0	0	0	0	513	510	510	31	0	
7	0	0	0	0	0	513	508	511	31	0	
8	0	0	0	0	2	514	508	516	31	0	
9	0	0	0	0	0	515	510	518	31	0	
10	0	0	0	0	0	513	509	516	32	0	
11	0	0	0	0	0	516	509	519	32	0	
12	0	0	0	0	0	514	508	515	32	0	
13	0	0	0	0	0	514	508	513	31	0	
14	0	0	0	0	0	515	509	511	31	0	
15	0	0	0	0	0	514	510	510	31	0	
0	0	0	0	0	2	515	510	507	32	0	
1	0	0	0	0	0	513	511	504	32	0	
2	0	0	0	0	0	513	508	503	31	0	
3	0	0	0	0	0	513	511	508	32	0	
4	0	0	0	0	0	514	508	504	32	0	
5	0	0	0	0	0	515	510	505	32	0	
6	0	0	0	0	0	513	508	510	31	0	
7	0	0	0	0	0	513	508	508	31	0	
8	0	0	0	0	2	515	512	514	32	0	
9	0	0	0	0	0	513	508	513	32	0	
10	0	0	0	0	0	513	508	515	31	0	
11	0	0	0	0	0	514	507	515	32	0	
12	0	0	0	0	0	515	510	516	31	0	
13	0	0	0	0	0	513	508	512	32	0	
14	0	0	0	0	0	513	510	513	31	0	
15	0	0	0	0	0	511	513	511	32	0	
0	0	0	0	0	2	514	510	510	31	0	
1	0	0	0	0	0	515	510	503	31	0	
2	0	0	0	0	0	513	509	505	31	0	
3	0	0	0	0	0	513	509	504	31	0	
4	0	0	0	0	0	513	510	503	31	0	
5	0	0	0	0	0	513	512	508	31	0	
6	0	0	0	0	0	514	510	506	31	0	
7	0	0	0	0	0	513	511	502	32	0	
8	0	0	0	0	2	515	510	507	32	0	
9	0	0	0	0	0	515	510	511	31	0	
10	0	0	0	0	0	515	509	519	31	0	
11	0	0	0	0	0	513	507	516	31	0	
12	0	0	0	0	0	514	508	515	32	0	
13	0	0	0	0	0	513	509	514	32	0	
14	0	0	0	0	0	514	510	515	32	0	
15	0	0	0	0	0	513	511	515	32	0	
0	0	0	0	0	2	513	509	513	32	0	
1	0	0	0	0	0	513	508	510	32	0	
2	0	0	0	0	0	512	508	505	32	0	
3	0	0	0	0	0	515	510	503	32	0	
4	0	0	0	0	0	515	511	505	32	0	
5	0	0	0	0	0	514	508	505	32	0	
6	0	0	0	0	0	514	512	509	32	0	
7	0	0	0	0	0	516	510	508	32	0	
8	0	0	0	0	1	514	511	508	32	0	
9	0	0	0	0	0	512	510	511	31	0	
10	0	0	0	0	0	515	507	512	31	0	
11	0	0	0	0	0	516	510	518	31	0	
12	0	0	0	0	0	515	508	516	31	0	
13	0	0	0	0	0	515	511	520	31	0	
14	0	0	0	0	0	513	511	518	31	0	
15	0	0	0	0	0	512	509	511	31	0	
0	0	0	0	0	1	513	510	515	32	0	
1	0	0	0	0	0	512	509	510	32	0	
2	0	0	0	0	0	513	509	508	31	0	
3	0	0	0	0	0	512	510	505	31	0	
4	0	0	0	0	0	513	510	502	32	0	
5	0	0	0	0	0	515	509	504	32	0	
6	0	0	0	0	0	516	508	502	32	0	
7	0	0	0	0	0	513	509	502	32	0	
8	0	0	0	0	2	514	509	507	31	0	
9	0	0	0	0	0	513	508	507	31	0	
10	0	0	0	0	0	513	511	512	31	0	
11	0	0	0	0	0	513	509	515	31	0	
12	0	0	0	0	0	515	509	512	31	0	
13	0	0	0	0	0	517	509	512	32	0	
14	0	0	0	0	0	513	508	508	32	0	
15	0	0	0	0	0	513	508	511	31	0	
0	0	0	0	0	2	512	510	508	31	0	
1	0	0	0	0	0	514	512	509	31	0	
2	0	0	0	0	0	513	512	507	31	0	
3	0	0	0	0	0	514	510	502	31	0	
4	0	0	0	0	0	513	508	499	31	0	
5	0	0	0	0	0	514	511	502	31	0	
6	0	0	0	0	0	515	510	502	31	0	
7	0	0	0	0	0	514	511	504	31	0	
8	0	0	0	0	2	514	510	503	32	0	
9	0	0	0	0	0	514	511	505	32	0	
10	0	0	0	0	0	514	511	509	32	0	
11	0	0	0	0	0	515	509	511	31	0	
12	0	0	0	0	0	514	510	516	31	0	
13	0	0	0	0	0	513	511	518	32	0	
14	0	0	0	0	0	514	510	519	32	0	
15	0	0	0	0	0	514	510	519	32	0	
0	0	0	0	0	2	516	506	515	32	0	
1	0	0	0	0	0	513	505	514	32	0	
2	0	0	0	0	0	513	508	513	31	0	
3	0	0	0	0	0	513	508	507	32	0	
4	0	0	0	0	0	513	508	507	32	0	
5	0	0	0	0	0	511	509	504	31	0	
6	0	0	0	0	0	513	510	505	32	0	
7	0	0	0	0	0	511	509	501	31	0	
8	0	0	0	0	2	512	510	504	31	0	
9	0	0	0	0	0	513	512	507	31	0	
10	0	0	0	0	0	514	509	511	31	0	
11	0	0	0	0	0	516	509	511	31	0	
12	0	0	0	0	0	513	510	515	32	0	
13	0	0	0	0	0	512	510	517	32	0	
14	0	0	0	0	0	514	508	518	31	0	
15	0	0	0	0	0	513	510	517	31	0	
0	0	0	0	0	2	516	512	515	32	0	
1	0	0	0	0	0	515	510	514	32	0	
2	0	0	0	0	0	513	510	513	32	0	
3	0	0	0	0	0	515	510	511	32	0	
4	0	0	0	0	0	516	508	507	32	0	
5	0	0	0	0	0	515	513	504	32	0	
6	0	0	0	0	0	513	512	503	32	0	
7	0	0	0	0	0	512	511	505	32	0	
8	0	0	0	0	2	514	510	506	31	0	
9	0	0	0	0	0	513	511	508	31	0	
10	0	0	0	0	0	512	509	512	31	0	
11	0	0	0	0	0	511	507	511	31	0	
12	0	0	0	0	0	513	508	513	31	0	
13	0	0	0	0	0	515	507	518	31	0	
14	0	0	0	0	0	515	510	521	31	0	
15	0	0	0	0	0	513	508	524	32	0	
0	0	0	0	0	2	515	510	519	31	0	
1	0	0	0	0	0	512	509	515	32	0	
2	0	0	0	0	0	514	508	515	32	0	
3	0	0	0	0	0	514	511	512	32	0	
4	0	0	0	0	0	512	511	513	32	0	
5	0	0	0	0	0	513	511	508	32	0	
6	0	0	0	0	0	513	512	506	31	0	
7	0	0	0	0	0	515	512	503	32	0	
8	0	0	0	0	2	512	508	503	32	0	
9	0	0	0	0	0	512	507	507	32	0	
10	0	0	0	0	0	512	512	510	32	0	
11	0	0	0	0	0	511	511	508	32	0	
12	0	0	0	0	0	513	509	509	32	0	
13	0	0	0	0	0	513	506	512	32	0	
14	0	0	0	0	0	515	511	519	32	0	
15	0	0	0	0	0	515	511	518	31	0	
0	0	0	0	0	2	513	509	518	32	0	
1	0	0	0	0	0	512	510	519	32	0	
2	0	0	0	0	0	514	510	514	31	0	
3	0	0	0	0	0	515	512	515	32	0	
4	0	0	0	0	0	516	508	508	32	0	
5	0	0	0	0	0	514	511	506	31	0	
6	0	0	0	0	0	514	508	504	31	0	
7	0	0	0	0	0	514	508	504	32	0	
8	0	0	0	0	2	514	508	501	31	0	
9	0	0	0	0	0	515	510	503	31	0	
10	0	0	0	0	0	512	509	505	31	0	
11	0	0	0	0	0	512	510	508	31	0	
12	0	0	0	0	0	513	509	511	31	0	
13	0	0	0	0	0	513	510	515	32	0	
14	0	0	0	0	0	513	510	517	32	0	
15	0	0	0	0	0	514	511	521	32	0	
0	0	0	0	0	1	514	509	519	32	0	
1	0	0	0	0	0	513	511	519	32	0	
2	0	0	0	0	0	515	510	515	31	0	
3	0	0	0	0	0	515	511	513	31	0	
4	0	0	0	0	0	516	510	510	31	0	
5	0	0	0	0	0	515	509	508	32	0	
6	0	0	0	0	0	515	512	507	31	0	
7	0	0	0	0	0	515	511	508	31	0	
8	0	0	0	0	1	512	508	503	31	0	
9	0	0	0	0	0	513	509	501	31	0	
10	0	0	0	0	0	514	509	505	32	0	
11	0	0	0	0	0	512	509	506	32	0	
12	0	0	0	0	0	511	510	507	32	0	
13	0	0	0	0	0	513	509	507	32	0	
14	0	0	0	0	0	516	508	509	32	0	
15	0	0	0	0	0	513	509	513	31	0	
0	0	0	0	0	1	514	507	519	31	0	
1	0	0	0	0	0	513	507	521	31	0	
2	0	0	0	0	0	512	508	519	31	0	
3	0	0	0	0	0	513	508	519	31	0	
4	0	0	0	0	0	515	512	515	32	0	
5	0	0	0	0	0	515	512	515	32	0	
6	0	0	0	0	0	514	509	509	32	0	
7	0	0	0	0	0	513	511	505	32	0	
8	0	0	0	0	2	515	511	508	32	0	
9	0	0	0	0	0	516	511	504	32	0	
10	0	0	0	0	0	512	511	506	32	0	
11	0	0	0	0	0	513	511	505	32	0	
12	0	0	0	0	0	514	512	505	32	0	
13	0	0	0	0	0	513	509	508	32	0	
14	0	0	0	0	0	512	509	512	31	0	
15	0	0	0	0	0	512	508	516	31	0	
0	0	0	0	0	2	515	509	519	31	0	
1	0	0	0	0	0	515	509	519	31	0	
2	0	0	0	0	0	515	510	519	32	0	
3	0	0	0	0	0	515	510	519	32	0	
4	0	0	0	0	0	515	510	519	31	0	
5	0	0	0	0	0	513	508	512	31	0	
6	0	0	0	0	0	513	510	509	31	0	
7	0	0	0	0	0	513	512	510	32	0	
8	0	0	0	0	2	512	511	504	32	0	
9	0	0	0	0	0	513	511	502	32	0	
10	0	0	0	0	0	513	510	503	31	0	
11	0	0	0	0	0	513	509	499	31	0	
12	0	0	0	0	0	515	510	506	31	0	
13	0	0	0	0	0	513	510	506	32	0	
14	0	0	0	0	0	515	510	511	32	0	
15	0	0	0	0	0	513	508	515	32	0	
0	0	0	0	0	2	515	512	518	32	0	
1	0	0	0	0	0	512	508	519	32	0	
2	0	0	0	0	0	515	506	521	32	0	
3	0	0	0	0	0	514	508	522	32	0	
4	0	0	0	0	0	512	507	520	32	0	
5	0	0	0	0	0	513	508	518	32	0	
6	0	0	0	0	0	514	507	512	32	0	
7	0	0	0	0	0	517	507	508	31	0	
8	0	0	0	0	2	514	510	505	31	0	
9	0	0	0	0	0	513	510	502	31	0	
10	0	0	0	0	0	515	507	499	32	0	
11	0	0	0	0	0	515	511	504	32	0	
12	0	0	0	0	0	513	512	501	31	0	
13	0	0	0	0	0	512	509	503	31	0	
14	0	0	0	0	0	513	510	503	32	0	
15	0	0	0	0	0	512	509	504	31	0	
0	0	0	0	0	2	514	508	508	31	0	
1	0	0	0	0	0	513	508	511	32	0	
2	0	0	0	0	0	513	512	517	32	0	
3	0	0	0	0	0	514	511	519	32	0	
4	0	0	0	0	0	515	513	518	32	0	
5	0	0	0	0	0	513	512	515	31	0	
6	0	0	0	0	0	514	511	514	32	0	
7	0	0	0	0	0	515	509	512	31	0	
8	0	0	0	0	2	512	509	506	32	0	
9	0	0	0	0	0	515	510	505	31	0	
10	0	0	0	0	0	512	510	504	32	0	
11	0	0	0	0	0	512	508	506	32	0	
12	0	0	0	0	0	513	508	505	32	0	
13	0	0	0	0	0	514	509	501	31	0	
14	0	0	0	0	0	514	510	507	32	0	
15	0	0	0	0	0	514	509	508	32	0	
0	0	0	0	0	2	514	510	515	32	0	
1	0	0	0	0	0	515	507	516	32	0	
2	0	0	0	0	0	514	511	518	32	0	
3	0	0	0	0	0	515	511	519	31	0	
4	0	0	0	0	0	514	508	519	32	0	
5	0	0	0	0	0	515	508	519	31	0	
6	0	0	0	0	0	513	509	517	31	0	
7	0	0	0	0	0	515	510	513	31	0	
8	0	0	0	0	2	513	510	514	31	0	
9	0	0	0	0	0	513	508	509	31	0	
10	0	0	0	0	0	514	508	506	31	0	
11	0	0	0	0	0	512	509	505	31	0	
12	0	0	0	0	0	512	510	503	32	0	
13	0	0	0	0	0	513	510	500	31	0	
14	0	0	0	0	0	514	509	503	31	0	
15	0	0	0	0	0	512	509	500	31	0	
0	0	0	0	0	2	513	511	504	31	0	
1	0	0	0	0	0	516	509	508	31	0	
2	0	0	0	0	0	515	513	511	32	0	
3	0	0	0	0	0	515	511	511	32	0	
4	0	0	0	0	0	514	510	514	31	0	
5	0	0	0	0	0	514	508	516	32	0	
6	0	0	0	0	0	515	508	518	32	0	
7	0	0	0	0	0	514	510	513	32	0	
8	0	0	0	0	2	513	509	515	32	0	
9	0	0	0	0	0	513	512	513	32	0	
10	0	0	0	0	0	510	511	513	32	0	
11	0	0	0	0	0	511	512	509	32	0	
12	0	0	0	0	0	513	512	504	32	0	
13	0	0	0	0	0	513	512	506	31	0	
14	0	0	0	0	0	512	510	507	31	0	
15	0	0	0	0	0	514	511	506	31	0	
0	0	0	0	0	1	515	510	509	31	0	
1	0	0	0	0	0	515	509	509	31	0	
2	0	0	0	0	0	515	508	513	31	0	
3	0	0	0	0	0	515	508	516	31	0	
4	0	0	0	0	0	513	509	518	32	0	
5	0	0	0	0	0	512	509	519	31	0	
6	0	0	0	0	0	512	508	519	32	0	
7	0	0	0	0	0	513	509	516	32	0	
8	0	0	0	0	1	515	508	512	32	0	
9	0	0	0	0	0	513	508	509	32	0	
10	0	0	0	0	0	514	507	508	32	0	
11	0	0	0	0	0	513	507	505	32	0	
12	0	0	0	0	0	515	509	504	32	0	
13	0	0	0	0	0	512	509	504	32	0	
14	0	0	0	0	0	514	510	503	32	0	
15	0	0	0	0	0	514	507	503	31	0	
0	0	0	0	0	1	515	510	502	31	0	
1	0	0	0	0	0	512	511	507	31	0	
2	0	0	0	0	0	513	512	506	32	0	
3	0	0	0	0	0	513	511	510	31	0	
4	0	0	0	0	0	514	511	515	32	0	
5	0	0	0	0	0	515	510	517	32	0	
6	0	0	0	0	0	515	510	515	32	0	
7	0	0	0	0	0	514	509	515	32	0	
8	0	0	0	0	2	514	511	514	32	0	
9	0	0	0	0	0	515	510	513	32	0	
10	0	0	0	0	0	515	508	510	31	0	
11	0	0	0	0	0	513	507	510	31	0	
12	0	0	0	0	0	512	507	512	31	0	
13	0	0	0	0	0	512	511	507	31	0	
14	0	0	0	0	0	514	511	502	31	0	
15	0	0	0	0	0	512	510	502	32	0	
0	0	0	0	0	2	512	508	501	32	0	
1	0	0	0	0	0	514	509	504	31	0	
2	0	0	0	0	0	514	508	507	32	0	
3	0	0	0	0	0	513	510	512	32	0	
4	0	0	0	0	0	512	512	512	31	0	
5	0	0	0	0	0	514	511	515	32	0	
6	0	0	0	0	0	512	508	519	31	0	
7	0	0	0	0	0	512	510	517	31	0	
8	0	0	0	0	2	515	509	518	31	0	
9	0	0	0	0	0	515	509	515	32	0	
10	0	0	0	0	0	515	512	516	32	0	
11	0	0	0	0	0	515	508	513	32	0	
12	0	0	0	0	0	516	510	510	32	0	
13	0	0	0	0	0	515	510	507	32	0	
14	0	0	0	0	0	514	512	504	31	0	
15	0	0	0	0	0	513	511	503	32	0	
0	0	0	0	0	2	513	510	503	32	0	
1	0	0	0	0	0	514	510	508	32	0	
2	0	0	0	0	0	515	511	511	32	0	
3	0	0	0	0	0	515	509	511	32	0	
4	0	0	0	0	0	514	509	512	32	0	
5	0	0	0	0	0	513	508	518	32	0	
6	0	0	0	0	0	515	510	518	32	0	
7	0	0	0	0	0	515	511	515	31	0	
8	0	0	0	0	2	515	509	518	31	0	
9	0	0	0	0	0	515	509	515	31	0	
10	0	0	0	0	0	513	510	513	31	0	
11	0	0	0	0	0	513	509	510	31	0	
12	0	0	0	0	0	513	508	507	31	0	
13	0	0	0	0	0	513	508	503	31	0	
14	0	0	0	0	0	512	509	502	31	0	
15	0	0	0	0	0	514	508	500	31	0	
0	0	0	0	0	2	513	508	500	31	0	
1	0	0	0	0	0	511	507	498	31	0	
2	0	0	0	0	0	514	508	499	31	0	
3	0	0	0	0	0	517	507	508	31	0	
4	0	0	0	0	0	514	507	507	31	0	
5	0	0	0	0	0	514	509	513	31	0	
6	0	0	0	0	0	514	510	515	32	0	
7	0	0	0	0	0	513	510	519	31	0	
8	0	0	0	0	2	513	510	517	31	0	
9	0	0	0	0	0	513	510	516	31	0	
10	0	0	0	0	0	512	512	515	31	0	
11	0	0	0	0	0	516	511	510	32	0	
12	0	0	0	0	0	512	510	508	31	0	
13	0	0	0	0	0	513	511	508	32	0	
14	0	0	0	0	0	516	512	506	31	0	
15	0	0	0	0	0	513	511	503	31	0	
0	0	0	0	0	2	513	512	504	32	0	
1	0	0	0	0	0	514	511	504	32	0	
2	0	0	0	0	0	513	514	507	32	0	
3	0	0	0	0	0	514	510	508	31	0	
4	0	0	0	0	0	514	508	512	32	0	
5	0	0	0	0	0	514	508	511	32	0	
6	0	0	0	0	0	515	509	514	32	0	
7	0	0	0	0	0	515	511	516	31	0	
8	0	0	0	0	2	512	508	519	32	0	
9	0	0	0	0	0	514	505	518	31	0	
10	0	0	0	0	0	513	507	517	32	0	
11	0	0	0	0	0	514	508	513	32	0	
12	0	0	0	0	0	515	510	511	32	0	
13	0	0	0	0	0	512	511	510	32	0	
14	0	0	0	0	0	513	508	504	32	0	
15	0	0	0	0	0	513	510	504	32	0	
0	0	0	0	0	2	514	508	502	31	0	
1	0	0	0	0	0	513	510	503	32	0	
2	0	0	0	0	0	515	510	503	32	0	
3	0	0	0	0	0	513	510	503	31	0	
4	0	0	0	0	0	514	510	508	31	0	
5	0	0	0	0	0	515	507	510	32	0	
6	0	0	0	0	0	514	510	515	32	0	
7	0	0	0	0	0	516	507	515	32	0	
8	0	0	0	0	2	515	510	518	32	0	
9	0	0	0	0	0	515	514	518	32	0	
10	0	0	0	0	0	513	511	518	32	0	
11	0	0	0	0	0	512	513	517	32	0	
12	0	0	0	0	0	513	515	513	32	0	
13	0	0	0	0	0	515	512	511	31	0	
14	0	0	0	0	0	514	512	512	32	0	
15	0	0	0	0	0	514	508	507	32	0	
0	0	0	0	0	1	513	508	503	31	0	
1	0	0	0	0	0	514	510	505	32	0	
2	0	0	0	0	0	513	510	504	32	0	
3	0	0	0	0	0	514	510	509	32	0	
4	0	0	0	0	0	514	506	508	31	0	
5	0	0	0	0	0	513	509	506	31	0	
6	0	0	0	0	0	514	509	508	31	0	
7	0	0	0	0	0	515	509	511	31	0	
8	0	0	0	0	1	515	508	515	31	0	
9	0	0	0	0	0	516	507	517	31	0	
10	0	0	0	0	0	517	510	520	31	0	
11	0	0	0	0	0	513	508	518	31	0	
12	0	0	0	0	0	512	509	516	32	0	
13	0	0	0	0	0	513	510	513	32	0	
14	0	0	0	0	0	513	508	511	32	0	
15	0	0	0	0	0	513	509	506	31	0	
0	0	0	0	0	2	514	508	504	31	0	
1	0	0	0	0	0	512	509	502	31	0	
2	0	0	0	0	0	512	510	503	32	0	
3	0	0	0	0	0	515	511	502	31	0	
4	0	0	0	0	0	513	510	503	32	0	
5	0	0	0	0	0	514	508	507	31	0	
6	0	0	0	0	0	512	508	505	31	0	
7	0	0	0	0	0	512	510	508	32	0	
8	0	0	0	0	2	512	508	514	32	0	
9	0	0	0	0	0	515	508	516	31	0	
10	0	0	0	0	0	513	511	518	31	0	
11	0	0	0	0	0	515	512	518	32	0	
12	0	0	0	0	0	514	508	516	31	0	
13	0	0	0	0	0	515	510	515	32	0	
14	0	0	0	0	0	515	509	508	32	0	
15	0	0	0	0	0	515	506	507	32	0	
0	0	0	0	0	2	513	511	507	32	0	
1	0	0	0	0	0	512	510	502	32	0	
2	0	0	0	0	0	513	509	499	31	0	
3	0	0	0	0	0	512	508	501	32	0	
4	0	0	0	0	0	513	510	502	32	0	
5	0	0	0	0	0	511	511	505	31	0	
6	0	0	0	0	0	513	512	505	32	0	
7	0	0	0	0	0	513	512	506	31	0	
8	0	0	0	0	2	515	513	512	32	0	
9	0	0	0	0	0	516	510	512	31	0	
10	0	0	0	0	0	515	509	517	32	0	
11	0	0	0	0	0	513	510	518	31	0	
12	0	0	0	0	0	515	511	516	31	0	
13	0	0	0	0	0	513	509	515	32	0	
14	0	0	0	0	0	514	508	515	32	0	
15	0	0	0	0	0	516	510	514	32	0	
0	0	0	0	0	2	515	509	512	32	0	
1	0	0	0	0	0	514	509	510	32	0	
2	0	0	0	0	0	512	510	512	32	0	
3	0	0	0	0	0	513	509	503	31	0	
4	0	0	0	0	0	513	508	504	31	0	
5	0	0	0	0	0	515	509	505	31	0	
6	0	0	0	0	0	513	511	508	32	0	
7	0	0	0	0	0	512	510	509	32	0	
8	0	0	0	0	2	513	510	510	32	0	
9	0	0	0	0	0	512	511	511	32	0	
10	0	0	0	0	0	514	510	513	31	0	
11	0	0	0	0	0	513	508	519	31	0	
12	0	0	0	0	0	513	509	519	31	0	
13	0	0	0	0	0	514	508	518	32	0	
14	0	0	0	0	0	513	510	516	32	0	
15	0	0	0	0	0	513	512	514	32	0	
0	0	0	0	0	2	513	509	512	31	0	
1	0	0	0	0	0	513	511	512	32	0	
2	0	0	0	0	0	512	508	508	32	0	
3	0	0	0	0	0	514	507	503	31	0	
4	0	0	0	0	0	514	510	504	31	0	
5	0	0	0	0	0	512	510	500	31	0	
6	0	0	0	0	0	516	512	502	31	0	
7	0	0	0	0	0	512	510	505	32	0	
8	0	0	0	0	2	514	511	508	31	0	
9	0	0	0	0	0	513	510	509	32	0	
10	0	0	0	0	0	513	509	514	32	0	
11	0	0	0	0	0	513	510	514	32	0	
12	0	0	0	0	0	515	508	517	32	0	
13	0	0	0	0	0	514	510	519	32	0	
14	0	0	0	0	0	513	511	521	32	0	
15	0	0	0	0	0	514	508	515	32	0	
0	0	0	0	0	2	515	510	513	32	0	
1	0	0	0	0	0	513	510	516	32	0	
2	0	0	0	0	0	515	509	509	32	0	
3	0	0	0	0	0	515	508	503	31	0	
4	0	0	0	0	0	516	511	503	31	0	
5	0	0	0	0	0	513	510	499	32	0	
6	0	0	0	0	0	514	509	502	32	0	
7	0	0	0	0	0	513	510	504	31	0	
8	0	0	0	0	2	512	511	507	31	0	
9	0	0	0	0	0	515	508	507	31	0	
10	0	0	0	0	0	513	507	509	32	0	
11	0	0	0	0	0	515	509	510	31	0	
12	0	0	0	0	0	513	508	515	31	0	
13	0	0	0	0	0	513	509	516	31	0	
14	0	0	0	0	0	512	507	517	32	0	
15	0	0	0	0	0	513	511	516	31	0	
0	0	0	0	0	2	514	512	516	32	0	
1	0	0	0	0	0	514	510	512	32	0	
2	0	0	0	0	0	513	511	512	32	0	
3	0	0	0	0	0	513	509	506	32	0	
4	0	0	0	0	0	513	507	504	31	0	
5	0	0	0	0	0	513	508	502	31	0	
6	0	0	0	0	0	515	508	500	31	0	
7	0	0	0	0	0	514	510	502	31	0	
8	0	0	0	0	1	511	509	501	32	0	
9	0	0	0	0	0	514	510	505	32	0	
10	0	0	0	0	0	514	512	507	32	0	
11	0	0	0	0	0	513	511	510	31	0	
12	0	0	0	0	0	513	511	515	32	0	
13	0	0	0	0	0	514	509	515	32	0	
14	0	0	0	0	0	515	509	516	32	0	
15	0	0	0	0	0	515	507	519	32	0	
0	0	0	0	0	1	513	508	511	32	0	
1	0	0	0	0	0	513	508	512	31	0	
2	0	0	0	0	0	511	510	510	32	0	
3	0	0	0	0	0	515	509	508	32	0	
4	0	0	0	0	0	512	509	503	32	0	
5	0	0	0	0	0	512	511	506	32	0	
6	0	0	0	0	0	513	512	503	32	0	
7	0	0	0	0	0	514	512	503	31	0	
8	0	0	0	0	1	516	513	504	31	0	
9	0	0	0	0	0	513	510	503	32	0	
10	0	0	0	0	0	512	512	505	31	0	
11	0	0	0	0	0	514	511	510	32	0	
12	0	0	0	0	0	515	509	515	31	0	
13	0	0	0	0	0	515	511	520	31	0	
14	0	0	0	0	0	513	510	520	31	0	
15	0	0	0	0	0	515	512	521	32	0	
0	0	0	0	0	2	517	508	523	32	0	
1	0	0	0	0	0	513	508	518	31	0	
2	0	0	0	0	0	514	510	515	32	0	
3	0	0	0	0	0	513	509	517	32	0	
4	0	0	0	0	0	513	509	513	32	0	
5	0	0	0	0	0	513	508	509	32	0	
6	0	0	0	0	0	514	508	507	32	0	
7	0	0	0	0	0	513	509	507	32	0	
8	0	0	0	0	2	512	510	509	32	0	
9	0	0	0	0	0	514	508	506	31	0	
10	0	0	0	0	0	513	509	507	31	0	
11	0	0	0	0	0	513	509	509	31	0	
12	0	0	0	0	0	514	511	512	32	0	
13	0	0	0	0	0	512	509	511	31	0	
14	0	0	0	0	0	515	508	517	31	0	
15	0	0	0	0	0	513	508	519	31	0	
0	0	0	0	0	2	514	509	515	31	0	
1	0	0	0	0	0	514	510	518	31	0	
2	0	0	0	0	0	515	511	512	32	0	
3	0	0	0	0	0	514	510	515	32	0	
4	0	0	0	0	0	511	511	513	32	0	
5	0	0	0	0	0	513	511	507	31	0	
6	0	0	0	0	0	516	509	507	32	0	
7	0	0	0	0	0	515	511	505	31	0	
8	0	0	0	0	2	513	510	504	31	0	
9	0	0	0	0	0	513	509	501	31	0	
10	0	0	0	0	0	515	511	504	32	0	
11	0	0	0	0	0	515	508	508	32	0	
12	0	0	0	0	0	513	510	505	32	0	
13	0	0	0	0	0	513	510	511	31	0	
14	0	0	0	0	0	513	509	513	32	0	
15	0	0	0	0	0	515	511	514	31	0	
0	0	0	0	0	2	514	509	516	31	0	
1	0	0	0	0	0	512	507	516	32	0	
2	0	0	0	0	0	513	509	520	32	0	
3	0	0	0	0	0	515	510	518	32	0	
4	0	0	0	0	0	515	508	514	32	0	
5	0	0	0	0	0	516	508	511	31	0	
6	0	0	0	0	0	513	510	505	31	0	
7	0	0	0	0	0	514	509	505	32	0	
8	0	0	0	0	2	514	511	501	32	0	
9	0	0	0	0	0	515	511	503	32	0	
10	0	0	0	0	0	515	511	503	32	0	
11	0	0	0	0	0	513	512	505	31	0	
12	0	0	0	0	0	512	510	506	31	0	
13	0	0	0	0	0	513	507	510	31	0	
14	0	0	0	0	0	513	510	515	31	0	
15	0	0	0	0	0	514	509	520	31	0	
0	0	0	0	0	2	514	510	520	31	0	
1	0	0	0	0	0	515	510	520	31	0	
2	0	0	0	0	0	513	508	521	32	0	
3	0	0	0	0	0	515	510	514	32	0	
4	0	0	0	0	0	514	508	515	32	0	
5	0	0	0	0	0	513	510	509	31	0	
6	0	0	0	0	0	512	509	507	32	0	
7	0	0	0	0	0	513	510	504	32	0	
8	0	0	0	0	2	513	509	504	32	0	
9	0	0	0	0	0	515	510	504	32	0	
10	0	0	0	0	0	513	508	503	31	0	
11	0	0	0	0	0	515	508	504	32	0	
12	0	0	0	0	0	511	510	505	31	0	
13	0	0	0	0	0	513	509	510	31	0	
14	0	0	0	0	0	515	511	511	31	0	
15	0	0	0	0	0	514	510	516	32	0	
0	0	0	0	0	2	515	508	519	32	0	
1	0	0	0	0	0	513	507	520	32	0	
2	0	0	0	0	0	513	510	518	32	0	
3	0	0	0	0	0	514	508	514	32	0	
4	0	0	0	0	0	514	510	511	32	0	
5	0	0	0	0	0	513	511	510	32	0	
6	0	0	0	0	0	513	513	508	31	0	
7	0	0	0	0	0	513	510	506	31	0	
8	0	0	0	0	2	515	510	507	32	0	
9	0	0	0	0	0	514	509	503	31	0	
10	0	0	0	0	0	513	508	505	31	0	
11	0	0	0	0	0	513	509	506	32	0	
12	0	0	0	0	0	513	511	505	32	0	
13	0	0	0	0	0	514	512	511	32	0	
14	0	0	0	0	0	515	509	513	31	0	
15	0	0	0	0	0	513	509	511	32	0	
0	0	0	0	0	2	514	511	517	31	0	
1	0	0	0	0	0	514	508	516	31	0	
2	0	0	0	0	0	516	508	516	31	0	
3	0	0	0	0	0	512	510	519	31	0	
4	0	0	0	0	0	512	510	516	32	0	
5	0	0	0	0	0	512	509	517	31	0	
6	0	0	0	0	0	515	512	511	32	0	
7	0	0	0	0	0	515	512	514	32	0	
8	0	0	0	0	1	516	511	510	32	0	
9	0	0	0	0	0	513	511	508	32	0	
10	0	0	0	0	0	512	512	506	31	0	
11	0	0	0	0	0	514	510	505	31	0	
12	0	0	0	0	0	515	510	504	32	0	
13	0	0	0	0	0	515	510	504	32	0	
14	0	0	0	0	0	513	508	507	32	0	
15	0	0	0	0	0	513	509	503	32	0	
0	0	0	0	0	1	513	507	511	31	0	
1	0	0	0	0	0	514	508	510	31	0	
2	0	0	0	0	0	514	510	518	31	0	
3	0	0	0	0	0	515	508	518	31	0	
4	0	0	0	0	0	513	507	519	32	0	
5	0	0	0	0	0	512	509	514	32	0	
6	0	0	0	0	0	515	509	514	32	0	
7	0	0	0	0	0	513	509	516	32	0	
8	0	0	0	0	1	514	509	513	32	0	
9	0	0	0	0	0	515	510	507	31	0	
10	0	0	0	0	0	516	512	501	31	0	
11	0	0	0	0	0	514	512	499	32	0	
12	0	0	0	0	0	513	508	501	31	0	
13	0	0	0	0	0	515	508	504	32	0	
14	0	0	0	0	0	514	509	506	31	0	
15	0	0	0	0	0	513	511	504	31	0	
0	0	0	0	0	2	513	509	510	31	0	
1	0	0	0	0	0	513	508	514	32	0	
2	0	0	0	0	0	514	510	519	32	0	
3	0	0	0	0	0	514	509	519	31	0	
4	0	0	0	0	0	512	508	518	31	0	
5	0	0	0	0	0	514	510	516	31	0	
6	0	0	0	0	0	512	511	515	32	0	
7	0	0	0	0	0	512	510	515	31	0	
8	0	0	0	0	2	512	511	514	32	0	
9	0	0	0	0	0	513	511	510	32	0	
10	0	0	0	0	0	515	509	504	31	0	
11	0	0	0	0	0	515	510	503	31	0	
12	0	0	0	0	0	512	509	497	31	0	
13	0	0	0	0	0	515	509	500	31	0	
14	0	0	0	0	0	515	510	500	32	0	
15	0	0	0	0	0	514	511	505	32	0	
0	0	0	0	0	2	514	510	510	31	0	
1	0	0	0	0	0	513	511	511	31	0	
2	0	0	0	0	0	514	511	517	32	0	
3	0	0	0	0	0	514	510	516	32	0	
4	0	0	0	0	0	513	508	517	32	0	
5	0	0	0	0	0	515	506	517	31	0	
6	0	0	0	0	0	512	510	513	32	0	
7	0	0	0	0	0	512	509	510	31	0	
8	0	0	0	0	2	515	508	511	31	0	
9	0	0	0	0	0	515	509	510	31	0	
10	0	0	0	0	0	513	509	508	32	0	
11	0	0	0	0	0	513	509	510	32	0	
12	0	0	0	0	0	514	509	509	32	0	
13	0	0	0	0	0	514	510	508	32	0	
14	0	0	0	0	0	515	508	505	32	0	
15	0	0	0	0	0	513	508	505	31	0	
0	0	0	0	0	2	512	509	506	32	0	
1	0	0	0	0	0	512	511	508	32	0	
2	0	0	0	0	0	514	511	513	32	0	
3	0	0	0	0	0	515	510	518	31	0	
4	0	0	0	0	0	515	514	518	31	0	
5	0	0	0	0	0	518	511	520	32	0	
6	0	0	0	0	0	514	510	515	32	0	
7	0	0	0	0	0	515	508	514	31	0	
8	0	0	0	0	2	515	509	517	32	0	
9	0	0	0	0	0	514	510	511	31	0	
10	0	0	0	0	0	516	511	510	31	0	
11	0	0	0	0	0	512	510	505	31	0	
12	0	0	0	0	0	512	508	504	31	0	
13	0	0	0	0	0	514	509	507	32	0	
14	0	0	0	0	0	512	510	506	32	0	
15	0	0	0	0	0	512	509	505	32	0	
0	0	0	0	0	2	513	510	502	32	0	
1	0	0	0	0	0	512	512	504	31	0	
2	0	0	0	0	0	514	511	509	31	0	
3	0	0	0	0	0	513	511	512	31	0	
4	0	0	0	0	0	514	513	517	32	0	
5	0	0	0	0	0	515	510	518	31	0	
6	0	0	0	0	0	516	510	519	31	0	
7	0	0	0	0	0	517	509	523	32	0	
8	0	0	0	0	2	513	511	517	32	0	
9	0	0	0	0	0	512	509	515	32	0	
10	0	0	0	0	0	514	507	512	31	0	
11	0	0	0	0	0	513	510	510	32	0	
12	0	0	0	0	0	513	511	510	32	0	
13	0	0	0	0	0	512	511	504	32	0	
14	0	0	0	0	0	513	510	499	32	0	
15	0	0	0	0	0	516	510	501	32	0	
0	0	0	0	0	2	514	508	504	31	0	
1	0	0	0	0	0	511	510	508	31	0	
2	0	0	0	0	0	512	508	508	31	0	
3	0	0	0	0	0	513	508	509	32	0	
4	0	0	0	0	0	514	508	513	32	0	
5	0	0	0	0	0	513	507	515	32	0	
6	0	0	0	0	0	516	507	518	32	0	
7	0	0	0	0	0	515	509	520	32	0	
8	0	0	0	0	2	515	510	518	32	0	
9	0	0	0	0	0	516	511	516	31	0	
10	0	0	0	0	0	514	513	512	31	0	
11	0	0	0	0	0	512	512	508	31	0	
12	0	0	0	0	0	513	511	504	31	0	
13	0	0	0	0	0	514	508	502	31	0	
14	0	0	0	0	0	513	510	500	32	0	
15	0	0	0	0	0	515	509	502	32	0	
0	0	0	0	0	2	516	507	504	32	0	
1	0	0	0	0	0	514	510	507	32	0	
2	0	0	0	0	0	510	509	516	32	0	
3	0	0	0	0	0	508	510	528	32	0	
4	0	0	0	0	0	509	511	530	32	0	
5	0	0	0	0	0	512	510	527	32	0	
6	0	0	0	0	0	515	514	519	32	0	
7	0	0	0	0	0	516	518	509	31	0	
8	0	0	0	0	1	513	510	508	31	0	
9	0	0	0	0	0	515	511	498	31	0	
10	0	0	0	0	0	518	510	488	31	0	
11	0	0	0	0	0	516	508	491	31	0	
12	0	0	0	0	0	515	506	509	32	0	
13	0	0	0	0	0	510	504	521	32	0	
14	0	0	0	0	0	511	504	525	32	0	
15	0	0	0	0	0	510	507	545	33	0	
0	0	0	0	0	1	515	510	556	33	0	
1	0	0	0	0	0	516	508	537	32	0	
2	0	0	0	0	0	513	510	512	32	0	
3	0	0	0	0	0	516	511	463	31	0	
4	0	0	0	0	0	518	512	454	30	0	
5	0	0	0	0	0	517	513	467	30	0	
6	0	0	0	0	0	515	515	467	30	0	
7	0	0	0	0	0	511	513	465	30	0	
8	0	0	0	0	2	511	511	470	30	0	
9	0	0	0	0	0	511	510	491	31	0	
10	0	0	0	0	0	510	508	518	32	0	
11	0	0	0	0	0	515	507	513	32	0	
12	0	0	0	0	0	516	508	496	32	0	
13	0	0	0	0	0	515	508	497	32	0	
14	0	0	0	0	0	513	509	487	32	0	
15	0	0	0	0	0	513	509	488	32	0	
0	0	0	0	0	2	520	509	489	32	0	
1	0	0	0	0	0	527	511	482	32	0	
2	0	0	0	0	0	519	513	484	32	0	
3	0	0	0	0	0	499	511	479	31	0	
4	0	0	0	0	0	503	513	465	30	0	
5	0	0	0	0	0	515	511	469	31	0	
6	0	0	0	0	0	516	514	476	32	0	
7	0	0	0	0	0	508	510	471	31	0	
8	0	0	0	0	2	514	511	469	31	0	
9	0	0	0	0	0	515	507	479	31	0	
10	0	0	0	0	0	513	504	490	32	0	
11	0	0	0	0	0	513	507	494	32	0	
12	0	0	0	0	0	512	507	488	32	0	
13	0	0	0	0	0	510	508	496	32	0	
14	0	0	0	0	0	515	504	486	32	0	
15	0	0	0	0	0	516	508	473	32	0	
0	0	0	0	0	2	517	511	484	32	0	
1	0	0	0	0	0	516	514	487	32	0	
2	0	0	0	0	0	521	514	492	32	0	
3	0	0	0	0	0	518	508	487	31	0	
4	0	0	0	0	0	511	504	490	30	0	
5	0	0	0	0	0	509	508	504	30	0	
6	0	0	0	0	0	518	509	502	30	0	
7	0	0	0	0	0	512	514	500	31	0	
8	0	0	0	0	2	519	512	482	31	0	
9	0	0	0	0	0	518	511	484	31	0	
10	0	0	0	0	0	506	511	483	31	0	
11	0	0	0	0	0	506	509	470	31	0	
12	0	0	0	0	0	509	508	479	31	0	
13	0	0	0	0	0	512	509	497	31	0	
14	0	0	0	0	0	512	510	515	32	0	
15	0	0	0	0	0	514	509	517	32	0	
0	0	0	0	0	2	515	506	513	32	0	
1	0	0	0	0	0	513	508	510	32	0	
2	0	0	0	0	0	514	511	507	32	0	
3	0	0	0	0	0	512	511	510	32	0	
4	0	0	0	0	0	511	511	504	32	0	
5	0	0	0	0	0	518	508	513	32	0	
6	0	0	0	0	0	513	507	521	32	0	
7	0	0	0	0	0	507	510	510	32	0	
8	0	0	0	0	2	507	509	507	32	0	
9	0	0	0	0	0	515	508	524	32	0	
10	0	0	0	0	0	513	508	540	31	0	
11	0	0	0	0	0	516	510	525	31	0	
12	0	0	0	0	0	527	511	496	31	0	
13	0	0	0	0	0	528	508	495	32	0	
14	0	0	0	0	0	509	509	514	32	0	
15	0	0	0	0	0	502	509	523	32	0	
0	0	0	0	0	2	511	516	516	31	0	
1	0	0	0	0	0	519	513	504	31	0	
2	0	0	0	0	0	513	512	500	31	0	
3	0	0	0	0	0	512	510	503	32	0	
4	0	0	0	0	0	515	506	487	32	0	
5	0	0	0	0	0	518	509	486	31	0	
6	0	0	0	0	0	516	509	492	31	0	
7	0	0	0	0	0	515	515	493	31	0	
8	0	0	0	0	2	514	513	514	31	0	
9	0	0	0	0	0	519	512	511	31	0	
10	0	0	0	0	0	519	508	501	31	0	
11	0	0	0	0	0	513	506	509	31	0	
12	0	0	0	0	0	510	507	513	32	0	
13	0	0	0	0	0	511	508	511	31	0	
14	0	0	0	0	0	511	506	507	32	0	
15	0	0	0	0	0	511	506	514	32	0	
0	0	0	0	0	2	516	508	519	31	0	
1	0	0	0	0	0	513	509	516	31	0	
2	0	0	0	0	0	513	511	515	32	0	
3	0	0	0	0	0	508	511	515	32	0	
4	0	0	0	0	0	508	508	536	32	0	
5	0	0	0	0	0	509	508	528	32	0	
6	0	0	0	0	0	511	510	511	32	0	
7	0	0	0	0	0	516	512	508	32	0	
8	0	0	0	0	2	520	512	500	31	0	
9	0	0	0	0	0	516	515	496	31	0	
10	0	0	0	0	0	515	512	500	31	0	
11	0	0	0	0	0	515	508	510	31	0	
12	0	0	0	0	0	514	506	524	31	0	
13	0	0	0	0	0	521	503	531	32	0	
14	0	0	0	0	0	519	502	541	32	0	
15	0	0	0	0	0	512	510	545	32	0	
0	0	0	0	0	1	510	510	541	32	0	
1	0	0	0	0	0	512	511	538	32	0	
2	0	0	0	0	0	515	512	535	32	0	
3	0	0	0	0	0	526	519	511	31	0	
4	0	0	0	0	0	524	514	492	32	0	
5	0	0	0	0	0	510	505	491	32	0	
6	0	0	0	0	0	496	501	504	31	0	
7	0	0	0	0	0	493	511	502	31	0	
8	0	0	0	0	1	511	513	508	31	0	
9	0	0	0	0	0	511	509	523	31	0	
10	0	0	0	0	0	512	508	530	31	0	
11	0	0	0	0	0	515	507	531	31	0	
12	0	0	0	0	0	518	508	527	31	0	
13	0	0	0	0	0	520	509	527	31	0	
14	0	0	0	0	0	519	512	522	31	0	
15	0	0	0	0	0	519	514	514	32	0	
0	0	0	0	0	1	515	517	508	31	0	
1	0	0	0	0	0	514	522	512	31	0	
2	0	0	0	0	0	513	516	522	32	0	
3	0	0	0	0	0	507	500	525	33	0	
4	0	0	0	0	0	509	497	524	32	0	
5	0	0	0	0	0	512	496	522	32	0	
6	0	0	0	0	0	516	505	519	32	0	
7	0	0	0	0	0	517	509	517	32	0	
8	0	0	0	0	2	519	512	510	31	0	
9	0	0	0	0	0	517	514	508	31	0	
10	0	0	0	0	0	512	513	505	31	0	
11	0	0	0	0	0	514	514	499	31	0	
12	0	0	0	0	0	517	515	505	31	0	
13	0	0	0	0	0	516	512	511	31	0	
14	0	0	0	0	0	514	507	521	31	0	
15	0	0	0	0	0	509	503	529	31	0	
0	0	0	0	0	2	508	503	534	31	0	
1	0	0	0	0	0	508	507	527	32	0	
2	0	0	0	0	0	513	507	512	32	0	
3	0	0	0	0	0	517	509	507	32	0	
4	0	0	0	0	0	517	512	509	32	0	
5	0	0	0	0	0	514	511	506	32	0	
6	0	0	0	0	0	515	511	496	32	0	
7	0	0	0	0	0	514	510	506	31	0	
8	0	0	0	0	2	512	508	519	32	0	
9	0	0	0	0	0	510	509	527	32	0	
10	0	0	0	0	0	508	511	524	31	0	
11	0	0	0	0	0	512	512	526	31	0	
12	0	0	0	0	0	513	511	526	31	0	
13	0	0	0	0	0	517	511	524	31	0	
14	0	0	0	0	0	513	512	524	31	0	
15	0	0	0	0	0	513	511	515	31	0	
0	0	0	0	0	2	515	516	511	31	0	
1	0	0	0	0	0	520	518	516	31	0	
2	0	0	0	0	0	518	514	518	32	0	
3	0	0	0	0	0	515	510	521	32	0	
4	0	0	0	0	0	510	506	522	32	0	
5	0	0	0	0	0	511	504	526	32	0	
6	0	0	0	0	0	512	503	525	32	0	
7	0	0	0	0	0	512	504	521	32	0	
8	0	0	0	0	2	513	507	516	31	0	
9	0	0	0	0	0	511	508	511	32	0	
10	0	0	0	0	0	512	507	509	32	0	
11	0	0	0	0	0	513	507	512	32	0	
12	0	0	0	0	0	510	507	519	32	0	
13	0	0	0	0	0	511	509	529	32	0	
14	0	0	0	0	0	511	508	535	32	0	
15	0	0	0	0	0	515	511	535	31	0	
0	0	0	0	0	2	515	511	534	31	0	
1	0	0	0	0	0	516	510	528	32	0	
2	0	0	0	0	0	516	511	522	32	0	
3	0	0	0	0	0	513	510	517	32	0	
4	0	0	0	0	0	512	506	512	32	0	
5	0	0	0	0	0	514	505	508	32	0	
6	0	0	0	0	0	513	509	506	32	0	
7	0	0	0	0	0	513	510	507	31	0	
8	0	0	0	0	2	516	512	512	31	0	
9	0	0	0	0	0	516	512	514	31	0	
10	0	0	0	0	0	516	511	524	31	0	
11	0	0	0	0	0	513	512	528	31	0	
12	0	0	0	0	0	513	513	527	31	0	
13	0	0	0	0	0	515	513	527	31	0	
14	0	0	0	0	0	515	512	531	32	0	
15	0	0	0	0	0	513	509	529	32	0	
0	0	0	0	0	2	512	510	526	31	0	
1	0	0	0	0	0	513	508	524	32	0	
2	0	0	0	0	0	512	509	517	32	0	
3	0	0	0	0	0	514	512	518	32	0	
4	0	0	0	0	0	513	512	519	31	0	
5	0	0	0	0	0	515	510	513	31	0	
6	0	0	0	0	0	519	510	511	31	0	
7	0	0	0	0	0	515	512	508	31	0	
8	0	0	0	0	2	513	510	512	32	0	
9	0	0	0	0	0	511	509	511	32	0	
10	0	0	0	0	0	510	507	512	32	0	
11	0	0	0	0	0	511	507	515	32	0	
12	0	0	0	0	0	512	507	517	32	0	
13	0	0	0	0	0	515	507	523	31	0	
14	0	0	0	0	0	515	510	524	32	0	
15	0	0	0	0	0	514	510	527	32	0	
0	0	0	0	0	2	515	508	529	32	0	
1	0	0	0	0	0	516	509	531	32	0	
2	0	0	0	0	0	513	512	527	31	0	
3	0	0	0	0	0	515	510	521	31	0	
4	0	0	0	0	0	516	510	520	31	0	
5	0	0	0	0	0	515	510	518	31	0	
6	0	0	0	0	0	512	512	511	31	0	
7	0	0	0	0	0	511	510	505	31	0	
8	0	0	0	0	2	513	511	506	31	0	
9	0	0	0	0	0	513	511	511	31	0	
10	0	0	0	0	0	515	509	514	31	0	
11	0	0	0	0	0	518	511	519	31	0	
12	0	0	0	0	0	517	511	527	31	0	
13	0	0	0	0	0	510	512	534	31	0	
14	0	0	0	0	0	510	509	532	32	0	
15	0	0	0	0	0	511	510	533	32	0	
0	0	0	0	0	1	514	510	530	32	0	
1	0	0	0	0	0	511	506	527	32	0	
2	0	0	0	0	0	515	507	524	32	0	
3	0	0	0	0	0	513	508	523	32	0	
4	0	0	0	0	0	511	510	524	32	0	
5	0	0	0	0	0	512	509	524	32	0	
6	0	0	0	0	0	515	509	527	32	0	
7	0	0	0	0	0	515	508	524	31	0	
8	0	0	0	0	1	516	512	524	31	0	
9	0	0	0	0	0	515	510	527	31	0	
10	0	0	0	0	0	517	510	526	32	0	
11	0	0	0	0	0	515	511	526	32	0	
12	0	0	0	0	0	511	511	526	32	0	
13	0	0	0	0	0	510	510	526	32	0	
14	0	0	0	0	0	509	510	529	32	0	
15	0	0	0	0	0	511	508	530	32	0	
0	0	0	0	0	1	512	508	530	32	0	
1	0	0	0	0	0	515	510	538	32	0	
2	0	0	0	0	0	520	511	541	31	0	
3	0	0	0	0	0	517	508	545	32	0	
4	0	0	0	0	0	510	507	544	31	0	
5	0	0	0	0	0	512	506	544	32	0	
6	0	0	0	0	0	516	510	535	32	0	
7	0	0	0	0	0	515	511	526	31	0	
8	0	0	0	0	2	512	512	516	31	0	
9	0	0	0	0	0	515	513	514	31	0	
10	0	0	0	0	0	515	514	510	31	0	
11	0	0	0	0	0	516	511	513	31	0	
12	0	0	0	0	0	515	508	515	32	0	
13	0	0	0	0	0	510	510	523	32	0	
14	0	0	0	0	0	513	508	527	32	0	
15	0	0	0	0	0	511	507	534	32	0	
0	0	0	0	0	2	514	508	540	32	0	
1	0	0	0	0	0	520	508	540	32	0	
2	0	0	0	0	0	522	509	540	32	0	
3	0	0	0	0	0	515	510	537	31	0	
4	0	0	0	0	0	511	510	533	32	0	
5	0	0	0	0	0	510	508	527	32	0	
6	0	0	0	0	0	510	509	519	31	0	
7	0	0	0	0	0	510	509	518	32	0	
8	0	0	0	0	2	510	511	514	31	0	
9	0	0	0	0	0	512	511	510	31	0	
10	0	0	0	0	0	515	512	512	32	0	
11	0	0	0	0	0	516	511	515	32	0	
12	0	0	0	0	0	519	513	518	32	0	
13	0	0	0	0	0	516	511	522	32	0	
14	0	0	0	0	0	515	511	521	32	0	
15	0	0	0	0	0	513	512	526	31	0	
0	0	0	0	0	2	514	511	531	31	0	
1	0	0	0	0	0	515	510	535	32	0	
2	0	0	0	0	0	514	508	536	32	0	
3	0	0	0	0	0	514	508	529	31	0	
4	0	0	0	0	0	514	510	527	31	0	
5	0	0	0	0	0	517	508	521	31	0	
6	0	0	0	0	0	515	506	521	32	0	
7	0	0	0	0	0	514	505	521	32	0	
8	0	0	0	0	2	510	508	520	31	0	
9	0	0	0	0	0	512	508	526	31	0	
10	0	0	0	0	0	511	510	531	31	0	
11	0	0	0	0	0	511	507	533	31	0	
12	0	0	0	0	0	508	510	532	31	0	
13	0	0	0	0	0	511	508	530	32	0	
14	0	0	0	0	0	514	512	526	31	0	
15	0	0	0	0	0	517	513	524	32	0	
0	0	0	0	0	2	518	511	526	32	0	
1	0	0	0	0	0	518	511	524	31	0	
2	0	0	0	0	0	513	512	521	32	0	
3	0	0	0	0	0	514	511	519	32	0	
4	0	0	0	0	0	513	510	514	32	0	
5	0	0	0	0	0	513	510	514	32	0	
6	0	0	0	0	0	513	507	510	32	0	
7	0	0	0	0	0	514	509	505	32	0	
8	0	0	0	0	2	512	508	503	32	0	
9	0	0	0	0	0	513	508	497	32	0	
10	0	0	0	0	0	515	508	496	32	0	
11	0	0	0	0	0	513	506	491	31	0	
12	0	0	0	0	0	512	507	490	31	0	
13	0	0	0	0	0	510	508	492	31	0	
14	0	0	0	0	0	512	510	495	31	0	
15	0	0	0	0	0	515	508	496	31	0	
0	0	0	0	0	2	514	507	499	32	0	
1	0	0	0	0	0	514	508	504	31	0	
2	0	0	0	0	0	513	507	507	32	0	
3	0	0	0	0	0	515	508	508	32	0	
4	0	0	0	0	0	513	512	510	32	0	
5	0	0	0	0	0	518	515	507	32	0	
6	0	0	0	0	0	518	513	502	32	0	
7	0	0	0	0	0	515	512	504	31	0	
8	0	0	0	0	2	516	509	498	31	0	
9	0	0	0	0	0	514	512	496	31	0	
10	0	0	0	0	0	513	512	487	31	0	
11	0	0	0	0	0	515	511	488	31	0	
12	0	0	0	0	0	515	512	489	31	0	
13	0	0	0	0	0	516	510	488	31	0	
14	0	0	0	0	0	515	509	493	32	0	
15	0	0	0	0	0	511	506	494	32	0	
0	0	0	0	0	2	511	508	496	31	0	
1	0	0	0	0	0	513	508	501	32	0	
2	0	0	0	0	0	511	508	503	32	0	
3	0	0	0	0	0	511	507	508	31	0	
4	0	0	0	0	0	513	507	511	31	0	
5	0	0	0	0	0	513	509	507	32	0	
6	0	0	0	0	0	513	508	504	31	0	
7	0	0	0	0	0	515	510	505	32	0	
8	0	0	0	0	2	515	511	506	31	0	
9	0	0	0	0	0	513	511	502	32	0	
10	0	0	0	0	0	512	509	495	31	0	
11	0	0	0	0	0	511	508	494	31	0	
12	0	0	0	0	0	514	512	493	31	0	
13	0	0	0	0	0	513	510	495	32	0	
14	0	0	0	0	0	514	508	495	32	0	
15	0	0	0	0	0	513	511	500	31	0	
0	0	0	0	0	1	517	512	500	32	0	
1	0	0	0	0	0	516	511	505	32	0	
2	0	0	0	0	0	515	512	509	32	0	
3	0	0	0	0	0	514	512	510	32	0	
4	0	0	0	0	0	513	514	514	32	0	
5	0	0	0	0	0	514	512	510	32	0	
6	0	0	0	0	0	514	511	510	32	0	
7	0	0	0	0	0	512	506	507	32	0	
8	0	0	0	0	1	513	507	504	31	0	
9	0	0	0	0	0	513	508	504	31	0	
10	0	0	0	0	0	515	508	502	31	0	
11	0	0	0	0	0	513	507	500	31	0	
12	0	0	0	0	0	515	509	500	32	0	
13	0	0	0	0	0	515	510	496	32	0	
14	0	0	0	0	0	514	510	495	31	0	
15	0	0	0	0	0	516	510	494	31	0	
0	0	0	0	0	2	513	509	495	31	0	
1	0	0	0	0	0	515	510	499	31	0	
2	0	0	0	0	0	513	511	498	31	0	
3	0	0	0	0	0	512	508	507	32	0	
4	0	0	0	0	0	512	510	508	31	0	
5	0	0	0	0	0	513	508	514	32	0	
6	0	0	0	0	0	513	511	515	32	0	
7	0	0	0	0	0	516	510	509	32	0	
8	0	0	0	0	2	516	506	508	32	0	
9	0	0	0	0	0	513	508	508	32	0	
10	0	0	0	0	0	514	508	508	32	0	
11	0	0	0	0	0	514	509	499	32	0	
12	0	0	0	0	0	512	509	488	32	0	
13	0	0	0	0	0	514	512	489	32	0	
14	0	0	0	0	0	512	513	491	32	0	
15	0	0	0	0	0	513	512	494	31	0	
0	0	0	0	0	2	513	513	497	31	0	
1	0	0	0	0	0	512	513	500	31	0	
2	0	0	0	0	0	512	510	499	32	0	
3	0	0	0	0	0	515	507	503	31	0	
4	0	0	0	0	0	515	508	506	31	0	
5	0	0	0	0	0	516	508	507	31	0	
6	0	0	0	0	0	514	510	507	31	0	
7	0	0	0	0	0	514	510	508	31	0	
8	0	0	0	0	2	513	509	511	32	0	
9	0	0	0	0	0	512	509	513	32	0	
10	0	0	0	0	0	512	509	510	32	0	
11	0	0	0	0	0	515	507	505	32	0	
12	0	0	0	0	0	517	509	503	32	0	
13	0	0	0	0	0	515	510	500	31	0	
14	0	0	0	0	0	514	507	497	32	0	
15	0	0	0	0	0	515	511	497	31	0	
0	0	0	0	0	2	514	508	500	32	0	
1	0	0	0	0	0	516	510	500	32	0	
2	0	0	0	0	0	515	511	502	32	0	
3	0	0	0	0	0	515	512	503	31	0	
4	0	0	0	0	0	512	511	508	31	0	
5	0	0	0	0	0	515	511	511	31	0	
6	0	0	0	0	0	514	511	509	31	0	
7	0	0	0	0	0	513	509	509	32	0	
8	0	0	0	0	2	513	511	508	32	0	
9	0	0	0	0	0	513	509	511	32	0	
10	0	0	0	0	0	514	508	509	32	0	
11	0	0	0	0	0	514	508	512	32	0	
12	0	0	0	0	0	513	510	504	31	0	
13	0	0	0	0	0	512	510	505	31	0	
14	0	0	0	0	0	515	511	503	32	0	
15	0	0	0	0	0	514	509	498	32	0	
0	0	0	0	0	2	513	510	500	31	0	
1	0	0	0	0	0	512	509	501	32	0	
2	0	0	0	0	0	513	507	504	31	0	
3	0	0	0	0	0	512	510	504	31	0	
4	0	0	0	0	0	514	510	505	32	0	
5	0	0	0	0	0	514	510	511	32	0	
6	0	0	0	0	0	518	510	511	31	0	
7	0	0	0	0	0	515	509	515	32	0	
8	0	0	0	0	2	514	507	515	31	0	
9	0	0	0	0	0	513	511	515	31	0	
10	0	0	0	0	0	514	511	511	31	0	
11	0	0	0	0	0	514	510	511	32	0	
12	0	0	0	0	0	514	510	508	32	0	
13	0	0	0	0	0	515	512	507	32	0	
14	0	0	0	0	0	513	509	506	32	0	
15	0	0	0	0	0	512	510	502	31	0	
0	0	0	0	0	2	512	509	500	31	0	
1	0	0	0	0	0	511	508	500	31	0	
2	0	0	0	0	0	514	509	503	31	0	
3	0	0	0	0	0	514	508	508	32	0	
4	0	0	0	0	0	513	508	504	31	0	
5	0	0	0	0	0	511	508	505	32	0	
6	0	0	0	0	0	512	509	510	32	0	
7	0	0	0	0	0	513	508	512	31	0	
8	0	0	0	0	2	515	508	515	31	0	
9	0	0	0	0	0	517	508	515	32	0	
10	0	0	0	0	0	516	510	515	32	0	
11	0	0	0	0	0	516	510	512	32	0	
12	0	0	0	0	0	516	510	511	32	0	
13	0	0	0	0	0	515	510	508	32	0	
14	0	0	0	0	0	515	511	507	32	0	
15	0	0	0	0	0	514	512	504	32	0	
0	0	0	0	0	2	512	512	500	31	0	
1	0	0	0	0	0	513	509	496	31	0	
2	0	0	0	0	0	511	510	494	31	0	
3	0	0	0	0	0	512	511	502	31	0	
4	0	0	0	0	0	511	511	504	31	0	
5	0	0	0	0	0	513	512	507	32	0	
6	0	0	0	0	0	514	513	510	32	0	
7	0	0	0	0	0	513	512	514	31	0	
8	0	0	0	0	1	512	512	512	31	0	
9	0	0	0	0	0	515	510	518	32	0	
10	0	0	0	0	0	514	512	518	32	0	
11	0	0	0	0	0	514	509	512	32	0	
12	0	0	0	0	0	516	508	510	32	0	
13	0	0	0	0	0	516	508	510	32	0	
14	0	0	0	0	0	514	508	510	32	0	
15	0	0	0	0	0	515	508	506	32	0	
0	0	0	0	0	1	515	509	508	32	0	
1	0	0	0	0	0	516	507	504	31	0	
2	0	0	0	0	0	514	508	504	32	0	
3	0	0	0	0	0	514	507	502	32	0	
4	0	0	0	0	0	512	508	508	31	0	
5	0	0	0	0	0	513	509	510	31	0	
6	0	0	0	0	0	512	509	513	31	0	
7	0	0	0	0	0	512	508	518	31	0	
8	0	0	0	0	1	513	509	520	31	0	
9	0	0	0	0	0	513	511	523	32	0	
10	0	0	0	0	0	512	508	521	32	0	
11	0	0	0	0	0	513	510	516	31	0	
12	0	0	0	0	0	514	511	514	31	0	
13	0	0	0	0	0	514	511	511	31	0	
14	0	0	0	0	0	514	511	511	31	0	
15	0	0	0	0	0	515	510	505	31	0	
0	0	0	0	0	2	512	511	505	31	0	
1	0	0	0	0	0	512	508	499	31	0	
2	0	0	0	0	0	512	508	497	31	0	
3	0	0	0	0	0	513	507	497	31	0	
4	0	0	0	0	0	511	508	503	31	0	
5	0	0	0	0	0	515	505	504	32	0	
6	0	0	0	0	0	514	508	506	32	0	
7	0	0	0	0	0	513	508	511	32	0	
8	0	0	0	0	2	514	505	512	32	0	
9	0	0	0	0	0	515	509	518	32	0	
10	0	0	0	0	0	516	508	516	32	0	
11	0	0	0	0	0	516	511	518	32	0	
12	0	0	0	0	0	514	508	519	32	0	
13	0	0	0	0	0	515	510	516	31	0	
14	0	0	0	0	0	512	511	516	32	0	
15	0	0	0	0	0	513	511	512	32	0	
0	0	0	0	0	2	516	514	505	32	0	
1	0	0	0	0	0	512	512	503	31	0	
2	0	0	0	0	0	513	513	504	31	0	
3	0	0	0	0	0	512	515	504	31	0	
4	0	0	0	0	0	515	512	504	32	0	
5	0	0	0	0	0	511	512	506	32	0	
6	0	0	0	0	0	512	511	508	32	0	
7	0	0	0	0	0	512	509	507	31	0	
8	0	0	0	0	2	513	506	510	32	0	
9	0	0	0	0	0	515	510	519	32	0	
10	0	0	0	0	0	516	510	519	32	0	
11	0	0	0	0	0	515	508	519	32	0	
12	0	0	0	0	0	515	508	520	32	0	
13	0	0	0	0	0	515	512	519	32	0	
14	0	0	0	0	0	515	511	516	32	0	
15	0	0	0	0	0	515	512	511	31	0	
0	0	0	0	0	2	515	510	511	31	0	
1	0	0	0	0	0	511	510	509	32	0	
2	0	0	0	0	0	513	510	507	32	0	
3	0	0	0	0	0	513	511	502	32	0	
4	0	0	0	0	0	514	510	502	32	0	
5	0	0	0	0	0	515	508	501	32	0	
6	0	0	0	0	0	514	509	507	32	0	
7	0	0	0	0	0	512	509	509	32	0	
8	0	0	0	0	2	512	511	508	31	0	
9	0	0	0	0	0	513	508	513	31	0	
10	0	0	0	0	0	512	510	514	31	0	
11	0	0	0	0	0	514	509	517	31	0	
12	0	0	0	0	0	514	510	519	31	0	
13	0	0	0	0	0	514	511	516	31	0	
14	0	0	0	0	0	515	511	513	32	0	
15	0	0	0	0	0	516	508	512	32	0	
0	0	0	0	0	2	514	510	511	31	0	
1	0	0	0	0	0	513	508	511	31	0	
2	0	0	0	0	0	515	509	504	32	0	
3	0	0	0	0	0	514	510	504	31	0	
4	0	0	0	0	0	513	509	504	31	0	
5	0	0	0	0	0	514	509	502	32	0	
6	0	0	0	0	0	513	508	507	32	0	
7	0	0	0	0	0	512	508	509	31	0	
8	0	0	0	0	2	513	508	508	31	0	
9	0	0	0	0	0	513	508	508	32	0	
10	0	0	0	0	0	512	510	515	31	0	
11	0	0	0	0	0	513	510	515	32	0	
12	0	0	0	0	0	514	508	514	32	0	
13	0	0	0	0	0	516	509	514	32	0	
14	0	0	0	0	0	516	511	513	32	0	
15	0	0	0	0	0	515	513	512	32	0	
0	0	0	0	0	2	515	512	514	32	0	
1	0	0	0	0	0	514	511	510	32	0	
2	0	0	0	0	0	514	510	503	31	0	
3	0	0	0	0	0	513	512	504	31	0	
4	0	0	0	0	0	513	511	504	32	0	
5	0	0	0	0	0	513	510	502	31	0	
6	0	0	0	0	0	510	508	501	31	0	
7	0	0	0	0	0	512	509	499	31	0	
8	0	0	0	0	2	512	510	500	31	0	
9	0	0	0	0	0	512	508	504	31	0	
10	0	0	0	0	0	516	509	508	31	0	
11	0	0	0	0	0	515	509	512	31	0	
12	0	0	0	0	0	514	512	516	32	0	
13	0	0	0	0	0	514	508	518	32	0	
14	0	0	0	0	0	513	509	515	32	0	
15	0	0	0	0	0	515	509	517	32	0	
0	0	0	0	0	2	515	509	516	32	0	
1	0	0	0	0	0	515	508	515	32	0	
2	0	0	0	0	0	513	508	510	31	0	
3	0	0	0	0	0	513	508	505	31	0	
4	0	0	0	0	0	513	511	503	31	0	
5	0	0	0	0	0	514	511	502	31	0	
6	0	0	0	0	0	514	511	503	32	0	
7	0	0	0	0	0	513	509	504	32	0	
8	0	0	0	0	1	510	508	511	32	0	
9	0	0	0	0	0	511	510	517	32	0	
10	0	0	0	0	0	513	508	512	32	0	
11	0	0	0	0	0	513	508	515	31	0	
12	0	0	0	0	0	512	508	519	31	0	
13	0	0	0	0	0	514	510	521	32	0	
14	0	0	0	0	0	516	511	520	32	0	
15	0	0	0	0	0	516	511	515	31	0	
0	0	0	0	0	1	514	511	519	31	0	
1	0	0	0	0	0	515	512	519	31	0	
2	0	0	0	0	0	514	508	516	31	0	
3	0	0	0	0	0	514	508	511	32	0	
4	0	0	0	0	0	515	510	507	32	0	
5	0	0	0	0	0	515	510	504	32	0	
6	0	0	0	0	0	513	510	500	31	0	
7	0	0	0	0	0	514	510	500	32	0	
8	0	0	0	0	1	512	509	505	32	0	
9	0	0	0	0	0	512	512	509	32	0	
10	0	0	0	0	0	513	510	509	31	0	
11	0	0	0	0	0	515	511	508	32	0	
12	0	0	0	0	0	515	511	513	31	0	
13	0	0	0	0	0	516	508	516	32	0	
14	0	0	0	0	0	513	511	515	32	0	
15	0	0	0	0	0	515	508	517	32	0	
0	0	0	0	0	2	514	508	514	31	0	
1	0	0	0	0	0	515	512	515	31	0	
2	0	0	0	0	0	513	508	513	31	0	
3	0	0	0	0	0	514	509	510	31	0	
4	0	0	0	0	0	514	510	510	31	0	
5	0	0	0	0	0	514	510	508	32	0	
6	0	0	0	0	0	512	511	505	31	0	
7	0	0	0	0	0	512	509	503	31	0	
8	0	0	0	0	2	514	511	503	31	0	
9	0	0	0	0	0	514	508	507	31	0	
10	0	0	0	0	0	514	508	506	32	0	
11	0	0	0	0	0	512	508	508	32	0	
12	0	0	0	0	0	511	508	511	31	0	
13	0	0	0	0	0	512	510	513	32	0	
14	0	0	0	0	0	514	511	513	32	0	
15	0	0	0	0	0	514	508	517	32	0	
0	0	0	0	0	2	515	508	515	31	0	
1	0	0	0	0	0	515	511	515	31	0	
2	0	0	0	0	0	515	512	516	32	0	
3	0	0	0	0	0	515	510	512	32	0	
4	0	0	0	0	0	513	511	509	32	0	
5	0	0	0	0	0	515	510	506	32	0	
6	0	0	0	0	0	513	510	501	32	0	
7	0	0	0	0	0	513	511	500	32	0	
8	0	0	0	0	2	513	511	501	32	0	
9	0	0	0	0	0	513	509	501	31	0	
10	0	0	0	0	0	515	508	502	32	0	
11	0	0	0	0	0	513	506	505	32	0	
12	0	0	0	0	0	516	511	505	32	0	
13	0	0	0	0	0	514	510	507	32	0	
14	0	0	0	0	0	514	509	513	31	0	
15	0	0	0	0	0	514	511	511	31	0	
0	0	0	0	0	2	515	513	511	31	0	
1	0	0	0	0	0	513	512	514	32	0	
2	0	0	0	0	0	514	509	512	31	0	
3	0	0	0	0	0	513	507	514	32	0	
4	0	0	0	0	0	515	508	511	31	0	
5	0	0	0	0	0	513	510	508	31	0	
6	0	0	0	0	0	511	508	504	31	0	
7	0	0	0	0	0	513	509	499	32	0	
8	0	0	0	0	2	512	510	502	32	0	
9	0	0	0	0	0	512	511	500	32	0	
10	0	0	0	0	0	513	513	503	32	0	
11	0	0	0	0	0	514	511	501	31	0	
12	0	0	0	0	0	516	512	507	31	0	
13	0	0	0	0	0	515	510	507	31	0	
14	0	0	0	0	0	513	510	512	31	0	
15	0	0	0	0	0	513	509	519	31	0	
0	0	0	0	0	2	514	511	517	31	0	
1	0	0	0	0	0	515	510	521	32	0	
2	0	0	0	0	0	515	508	521	32	0	
3	0	0	0	0	0	516	508	518	31	0	
4	0	0	0	0	0	513	509	516	32	0	
5	0	0	0	0	0	513	508	513	31	0	
6	0	0	0	0	0	514	510	512	32	0	
7	0	0	0	0	0	515	510	508	32	0	
8	0	0	0	0	2	514	510	508	31	0	
9	0	0	0	0	0	512	509	506	31	0	
10	0	0	0	0	0	512	508	503	32	0	
11	0	0	0	0	0	513	510	503	31	0	
12	0	0	0	0	0	513	510	508	31	0	
13	0	0	0	0	0	513	509	509	31	0	
14	0	0	0	0	0	514	510	510	32	0	
15	0	0	0	0	0	516	510	515	32	0	
0	0	0	0	0	2	513	510	517	32	0	
1	0	0	0	0	0	513	509	521	32	0	
2	0	0	0	0	0	514	510	519	32	0	
3	0	0	0	0	0	513	510	518	32	0	
4	0	0	0	0	0	512	510	516	32	0	
5	0	0	0	0	0	513	510	512	32	0	
6	0	0	0	0	0	514	508	511	32	0	
7	0	0	0	0	0	517	510	508	32	0	
8	0	0	0	0	2	514	509	504	32	0	
9	0	0	0	0	0	513	511	503	31	0	
10	0	0	0	0	0	512	508	502	31	0	
11	0	0	0	0	0	513	508	502	31	0	
12	0	0	0	0	0	510	508	504	31	0	
13	0	0	0	0	0	513	508	509	32	0	
14	0	0	0	0	0	514	508	513	31	0	
15	0	0	0	0	0	513	508	514	31	0	
0	0	0	0	0	2	515	511	519	32	0	
1	0	0	0	0	0	515	510	519	32	0	
2	0	0	0	0	0	516	509	517	32	0	
3	0	0	0	0	0	515	509	514	31	0	
4	0	0	0	0	0	515	508	515	31	0	
5	0	0	0	0	0	514	510	511	31	0	
6	0	0	0	0	0	515	509	514	32	0	
7	0	0	0	0	0	513	510	513	31	0	
8	0	0	0	0	1	511	510	509	32	0	
9	0	0	0	0	0	512	512	505	31	0	
10	0	0	0	0	0	511	512	506	32	0	
11	0	0	0	0	0	514	512	505	31	0	
12	0	0	0	0	0	515	512	506	32	0	
13	0	0	0	0	0	514	514	512	32	0	
14	0	0	0	0	0	514	512	511	31	0	
15	0	0	0	0	0	513	508	512	32	0	
0	0	0	0	0	1	512	508	515	32	0	
1	0	0	0	0	0	512	506	520	32	0	
2	0	0	0	0	0	512	506	517	32	0	
3	0	0	0	0	0	515	507	519	32	0	
4	0	0	0	0	0	515	506	519	31	0	
5	0	0	0	0	0	515	509	518	31	0	
6	0	0	0	0	0	516	511	516	32	0	
7	0	0	0	0	0	515	509	509	31	0	
8	0	0	0	0	2	515	510	505	31	0	
9	0	0	0	0	0	515	509	503	32	0	
10	0	0	0	0	0	511	510	501	32	0	
11	0	0	0	0	0	512	509	499	32	0	
12	0	0	0	0	0	511	510	501	32	0	
13	0	0	0	0	0	513	509	504	31	0	
14	0	0	0	0	0	513	509	508	31	0	
15	0	0	0	0	0	517	509	510	32	0	
0	0	0	0	0	2	515	509	511	32	0	
1	0	0	0	0	0	516	510	513	31	0	
2	0	0	0	0	0	513	507	514	32	0	
3	0	0	0	0	0	513	509	520	32	0	
4	0	0	0	0	0	515	508	518	31	0	
5	0	0	0	0	0	513	510	520	32	0	
6	0	0	0	0	0	513	512	515	31	0	
7	0	0	0	0	0	515	512	512	32	0	
8	0	0	0	0	2	512	510	507	31	0	
9	0	0	0	0	0	512	511	504	32	0	
10	0	0	0	0	0	512	510	507	31	0	
11	0	0	0	0	0	512	510	504	31	0	
12	0	0	0	0	0	512	508	500	31	0	
13	0	0	0	0	0	515	508	502	32	0	
14	0	0	0	0	0	515	507	505	32	0	
15	0	0	0	0	0	515	509	509	32	0	
0	0	0	0	0	2	516	510	510	32	0	
1	0	0	0	0	0	514	511	511	31	0	
2	0	0	0	0	0	515	511	512	31	0	
3	0	0	0	0	0	515	513	518	32	0	
4	0	0	0	0	0	513	513	518	31	0	
5	0	0	0	0	0	514	511	517	31	0	
6	0	0	0	0	0	513	511	515	31	0	
7	0	0	0	0	0	513	508	515	32	0	
8	0	0	0	0	2	513	509	514	32	0	
9	0	0	0	0	0	513	508	511	32	0	
10	0	0	0	0	0	513	506	505	32	0	
11	0	0	0	0	0	514	509	504	32	0	
12	0	0	0	0	0	512	508	503	31	0	
13	0	0	0	0	0	512	509	506	31	0	
14	0	0	0	0	0	513	511	507	32	0	
15	0	0	0	0	0	515	510	508	32	0	
0	0	0	0	0	2	514	509	510	31	0	
1	0	0	0	0	0	513	510	514	32	0	
2	0	0	0	0	0	515	511	517	31	0	
3	0	0	0	0	0	512	511	522	32	0	
4	0	0	0	0	0	512	511	515	31	0	
5	0	0	0	0	0	514	510	519	31	0	
6	0	0	0	0	0	513	510	518	32	0	
7	0	0	0	0	0	516	508	514	31	0	
8	0	0	0	0	2	513	506	512	31	0	
9	0	0	0	0	0	515	509	514	31	0	
10	0	0	0	0	0	513	508	508	32	0	
11	0	0	0	0	0	514	509	504	32	0	
12	0	0	0	0	0	515	510	501	32	0	
13	0	0	0	0	0	513	512	503	32	0	
14	0	0	0	0	0	514	512	499	31	0	
15	0	0	0	0	0	515	511	503	32	0	
0	0	0	0	0	2	514	511	505	32	0	
1	0	0	0	0	0	515	512	508	32	0	
2	0	0	0	0	0	516	508	512	31	0	
3	0	0	0	0	0	514	510	515	32	0	
4	0	0	0	0	0	515	507	519	32	0	
5	0	0	0	0	0	512	508	519	31	0	
6	0	0	0	0	0	515	508	511	31	0	
7	0	0	0	0	0	513	509	512	32	0	
8	0	0	0	0	2	514	508	514	32	0	
9	0	0	0	0	0	511	510	514	31	0	
10	0	0	0	0	0	514	509	510	31	0	
11	0	0	0	0	0	515	511	507	31	0	
12	0	0	0	0	0	515	511	505	31	0	
13	0	0	0	0	0	516	511	503	31	0	
14	0	0	0	0	0	515	513	503	31	0	
15	0	0	0	0	0	513	511	503	32	0	
0	0	0	0	0	2	513	508	508	32	0	
1	0	0	0	0	0	512	509	509	32	0	
2	0	0	0	0	0	512	510	512	32	0	
3	0	0	0	0	0	514	508	516	32	0	
4	0	0	0	0	0	512	512	517	31	0	
5	0	0	0	0	0	513	510	519	31	0	
6	0	0	0	0	0	513	509	519	32	0	
7	0	0	0	0	0	513	508	515	32	0	
8	0	0	0	0	2	513	509	515	32	0	
9	0	0	0	0	0	514	505	515	31	0	
10	0	0	0	0	0	515	508	513	32	0	
11	0	0	0	0	0	515	510	511	31	0	
12	0	0	0	0	0	513	510	508	31	0	
13	0	0	0	0	0	514	511	504	32	0	
14	0	0	0	0	0	511	514	504	32	0	
15	0	0	0	0	0	515	511	504	32	0	
0	0	0	0	0	1	515	512	504	31	0	
1	0	0	0	0	0	513	510	508	31	0	
2	0	0	0	0	0	514	510	507	31	0	
3	0	0	0	0	0	514	510	510	31	0	
4	0	0	0	0	0	514	510	516	32	0	
5	0	0	0	0	0	514	508	519	32	0	
6	0	0	0	0	0	512	508	516	32	0	
7	0	0	0	0	0	513	509	516	31	0	
8	0	0	0	0	1	514	507	515	31	0	
9	0	0	0	0	0	511	510	516	32	0	
10	0	0	0	0	0	513	508	516	32	0	
11	0	0	0	0	0	514	507	514	32	0	
12	0	0	0	0	0	514	511	514	32	0	
13	0	0	0	0	0	513	511	507	32	0	
14	0	0	0	0	0	515	510	505	32	0	
15	0	0	0	0	0	513	510	505	31	0	
0	0	0	0	0	1	512	510	504	31	0	
1	0	0	0	0	0	515	509	505	31	0	
2	0	0	0	0	0	513	509	504	31	0	
3	0	0	0	0	0	513	509	508	32	0	
4	0	0	0	0	0	515	510	510	32	0	
5	0	0	0	0	0	516	509	513	32	0	
6	0	0	0	0	0	516	508	517	32	0	
7	0	0	0	0	0	515	511	518	32	0	
8	0	0	0	0	2	514	510	516	32	0	
9	0	0	0	0	0	515	509	518	31	0	
10	0	0	0	0	0	514	510	516	32	0	
11	0	0	0	0	0	512	511	513	31	0	
12	0	0	0	0	0	511	512	512	32	0	
13	0	0	0	0	0	513	509	507	31	0	
14	0	0	0	0	0	513	510	503	32	0	
15	0	0	0	0	0	512	509	499	32	0	
0	0	0	0	0	2	512	511	500	31	0	
1	0	0	0	0	0	514	510	502	31	0	
2	0	0	0	0	0	515	508	505	32	0	
3	0	0	0	0	0	512	508	507	31	0	
4	0	0	0	0	0	513	507	509	31	0	
5	0	0	0	0	0	513	508	511	32	0	
6	0	0	0	0	0	513	509	516	32	0	
7	0	0	0	0	0	515	509	521	32	0	
8	0	0	0	0	2	514	508	519	32	0	
9	0	0	0	0	0	513	508	519	32	0	
10	0	0	0	0	0	513	510	513	32	0	
11	0	0	0	0	0	514	511	513	32	0	
12	0	0	0	0	0	515	514	512	31	0	
13	0	0	0	0	0	514	512	509	31	0	
14	0	0	0	0	0	514	511	505	31	0	
15	0	0	0	0	0	515	511	504	32	0	
0	0	0	0	0	2	512	510	499	31	0	
1	0	0	0	0	0	514	508	504	31	0	
2	0	0	0	0	0	515	508	505	32	0	
3	0	0	0	0	0	513	509	504	32	0	
4	0	0	0	0	0	515	510	509	32	0	
5	0	0	0	0	0	512	510	512	31	0	
6	0	0	0	0	0	511	510	514	32	0	
7	0	0	0	0	0	515	510	517	31	0	
8	0	0	0	0	2	514	510	516	32	0	
9	0	0	0	0	0	515	507	516	32	0	
10	0	0	0	0	0	515	510	518	31	0	
11	0	0	0	0	0	514	511	516	32	0	
12	0	0	0	0	0	515	510	514	31	0	
13	0	0	0	0	0	515	508	510	31	0	
14	0	0	0	0	0	513	509	509	32	0	
15	0	0	0	0	0	512	509	506	32	0	
0	0	0	0	0	2	513	510	505	32	0	
1	0	0	0	0	0	512	510	504	32	0	
2	0	0	0	0	0	515	509	502	31	0	
3	0	0	0	0	0	512	511	503	31	0	
4	0	0	0	0	0	511	511	505	31	0	
5	0	0	0	0	0	513	510	508	31	0	
6	0	0	0	0	0	512	509	510	31	0	
7	0	0	0	0	0	512	510	511	31	0	
8	0	0	0	0	2	516	510	517	32	0	
9	0	0	0	0	0	514	511	517	31	0	
10	0	0	0	0	0	513	512	512	31	0	
11	0	0	0	0	0	515	512	518	31	0	
12	0	0	0	0	0	516	511	512	32	0	
13	0	0	0	0	0	515	512	512	32	0	
14	0	0	0	0	0	514	507	511	32	0	
15	0	0	0	0	0	513	509	508	32	0	
0	0	0	0	0	2	513	511	508	32	0	
1	0	0	0	0	0	512	508	505	31	0	
2	0	0	0	0	0	513	510	506	31	0	
3	0	0	0	0	0	511	508	504	32	0	
4	0	0	0	0	0	512	507	508	32	0	
5	0	0	0	0	0	514	507	511	31	0	
6	0	0	0	0	0	514	508	508	31	0	
7	0	0	0	0	0	514	511	512	31	0	
8	0	0	0	0	2	515	510	515	31	0	
9	0	0	0	0	0	513	510	517	31	0	
10	0	0	0	0	0	513	508	516	31	0	
11	0	0	0	0	0	514	509	514	31	0	
12	0	0	0	0	0	513	510	513	32	0	
13	0	0	0	0	0	514	511	512	31	0	
14	0	0	0	0	0	516	510	513	31	0	
15	0	0	0	0	0	514	510	511	32	0	
0	0	0	0	0	2	516	510	508	32	0	
1	0	0	0	0	0	514	512	504	31	0	
2	0	0	0	0	0	514	512	500	31	0	
3	0	0	0	0	0	512	508	500	32	0	
4	0	0	0	0	0	516	508	501	32	0	
5	0	0	0	0	0	515	508	503	32	0	
6	0	0	0	0	0	512	510	509	32	0	
7	0	0	0	0	0	513	511	509	32	0	
8	0	0	0	0	2	513	513	511	32	0	
9	0	0	0	0	0	512	510	512	31	0	
10	0	0	0	0	0	514	509	515	31	0	
11	0	0	0	0	0	513	507	515	31	0	
12	0	0	0	0	0	513	508	515	31	0	
13	0	0	0	0	0	512	510	514	32	0	
14	0	0	0	0	0	515	510	513	31	0	
15	0	0	0	0	0	515	511	510	32	0	
0	0	0	0	0	1	513	511	511	32	0	
1	0	0	0	0	0	514	509	508	32	0	
2	0	0	0	0	0	514	508	504	32	0	
3	0	0	0	0	0	513	511	505	32	0	
4	0	0	0	0	0	514	509	505	31	0	
5	0	0	0	0	0	514	510	508	32	0	
6	0	0	0	0	0	515	512	507	32	0	
7	0	0	0	0	0	514	511	512	32	0	
8	0	0	0	0	1	515	509	517	31	0	
9	0	0	0	0	0	514	508	514	32	0	
10	0	0	0	0	0	514	508	520	32	0	
11	0	0	0	0	0	514	509	521	31	0	
12	0	0	0	0	0	514	509	519	32	0	
13	0	0	0	0	0	513	508	518	32	0	
14	0	0	0	0	0	513	510	519	31	0	
15	0	0	0	0	0	515	509	511	31	0	
0	0	0	0	0	1	512	510	513	31	0	
1	0	0	0	0	0	513	510	511	32	0	
2	0	0	0	0	0	514	511	508	32	0	
3	0	0	0	0	0	511	510	504	32	0	
4	0	0	0	0	0	513	512	504	32	0	
5	0	0	0	0	0	515	513	501	32	0	
6	0	0	0	0	0	515	511	505	32	0	
7	0	0	0	0	0	514	512	508	32	0	
8	0	0	0	0	2	513	508	505	32	0	
9	0	0	0	0	0	513	508	511	32	0	
10	0	0	0	0	0	514	507	515	32	0	
11	0	0	0	0	0	515	506	519	32	0	
12	0	0	0	0	0	513	509	520	32	0	
13	0	0	0	0	0	515	510	517	31	0	
14	0	0	0	0	0	514	510	518	32	0	
15	0	0	0	0	0	515	508	515	32	0	
0	0	0	0	0	2	515	512	513	31	0	
1	0	0	0	0	0	514	511	512	31	0	
2	0	0	0	0	0	514	510	510	32	0	
3	0	0	0	0	0	511	511	505	31	0	
4	0	0	0	0	0	515	510	499	32	0	
5	0	0	0	0	0	514	511	505	32	0	
6	0	0	0	0	0	513	512	504	32	0	
7	0	0	0	0	0	515	511	508	31	0	
8	0	0	0	0	2	512	511	507	31	0	
9	0	0	0	0	0	512	509	510	31	0	
10	0	0	0	0	0	511	507	510	32	0	
11	0	0	0	0	0	514	510	513	32	0	
12	0	0	0	0	0	513	507	518	32	0	
13	0	0	0	0	0	514	508	514	32	0	
14	0	0	0	0	0	515	508	517	31	0	
15	0	0	0	0	0	515	509	515	31	0	
0	0	0	0	0	2	514	511	515	32	0	
1	0	0	0	0	0	516	509	513	32	0	
2	0	0	0	0	0	513	507	508	31	0	
3	0	0	0	0	0	513	510	510	31	0	
4	0	0	0	0	0	512	508	504	32	0	
5	0	0	0	0	0	512	508	504	32	0	
6	0	0	0	0	0	514	510	503	32	0	
7	0	0	0	0	0	512	510	500	32	0	
8	0	0	0	0	2	515	509	500	31	0	
9	0	0	0	0	0	513	511	508	32	0	
10	0	0	0	0	0	515	512	512	31	0	
11	0	0	0	0	0	517	509	513	32	0	
12	0	0	0	0	0	516	510	521	32	0	
13	0	0	0	0	0	515	508	520	31	0	
14	0	0	0	0	0	516	509	519	32	0	
15	0	0	0	0	0	512	506	519	32	0	
0	0	0	0	0	2	513	508	512	32	0	
1	0	0	0	0	0	515	508	511	32	0	
2	0	0	0	0	0	513	511	513	32	0	
3	0	0	0	0	0	513	511	515	31	0	
4	0	0	0	0	0	514	513	510	31	0	
5	0	0	0	0	0	515	512	505	32	0	
6	0	0	0	0	0	514	513	505	32	0	
7	0	0	0	0	0	513	512	503	31	0	
8	0	0	0	0	2	513	513	505	31	0	
9	0	0	0	0	0	510	511	505	32	0	
10	0	0	0	0	0	512	511	509	32	0	
11	0	0	0	0	0	512	510	511	32	0	
12	0	0	0	0	0	515	509	514	31	0	
13	0	0	0	0	0	516	510	516	32	0	
14	0	0	0	0	0	513	507	519	31	0	
15	0	0	0	0	0	513	505	519	32	0	
0	0	0	0	0	2	513	508	519	31	0	
1	0	0	0	0	0	513	510	513	32	0	
2	0	0	0	0	0	512	509	513	31	0	
3	0	0	0	0	0	514	510	511	31	0	
4	0	0	0	0	0	513	511	507	32	0	
5	0	0	0	0	0	513	508	503	32	0	
6	0	0	0	0	0	515	509	502	32	0	
7	0	0	0	0	0	515	509	504	32	0	
8	0	0	0	0	2	515	507	507	32	0	
9	0	0	0	0	0	516	508	505	31	0	
10	0	0	0	0	0	513	511	505	31	0	
11	0	0	0	0	0	512	510	506	31	0	
12	0	0	0	0	0	512	511	510	31	0	
13	0	0	0	0	0	513	510	515	31	0	
14	0	0	0	0	0	514	509	518	32	0	
15	0	0	0	0	0	512	509	517	32	0	
0	0	0	0	0	2	513	507	519	32	0	
1	0	0	0	0	0	512	511	516	32	0	
2	0	0	0	0	0	514	513	513	32	0	
3	0	0	0	0	0	513	511	515	31	0	
4	0	0	0	0	0	514	509	512	32	0	
5	0	0	0	0	0	513	507	507	32	0	
6	0	0	0	0	0	515	508	503	32	0	
7	0	0	0	0	0	515	510	504	32	0	
8	0	0	0	0	2	516	510	500	32	0	
9	0	0	0	0	0	515	508	502	32	0	
10	0	0	0	0	0	513	509	504	31	0	
11	0	0	0	0	0	515	508	510	32	0	
12	0	0	0	0	0	515	508	510	32	0	
13	0	0	0	0	0	515	509	514	31	0	
14	0	0	0	0	0	515	512	517	32	0	
15	0	0	0	0	0	513	512	519	32	0	
0	0	0	0	0	1	515	512	524	32	0	
1	0	0	0	0	0	515	511	525	31	0	
2	0	0	0	0	0	513	512	522	31	0	
3	0	0	0	0	0	515	512	515	31	0	
4	0	0	0	0	0	512	511	513	32	0	
5	0	0	0	0	0	514	510	509	31	0	
6	0	0	0	0	0	514	510	505	32	0	
7	0	0	0	0	0	514	509	504	31	0	
8	0	0	0	0	1	511	508	500	31	0	
9	0	0	0	0	0	512	511	501	31	0	
10	0	0	0	0	0	515	511	505	32	0	
11	0	0	0	0	0	513	508	508	32	0	
12	0	0	0	0	0	511	510	508	32	0	
13	0	0	0	0	0	512	510	509	31	0	
14	0	0	0	0	0	515	507	514	31	0	
15	0	0	0	0	0	512	510	519	32	0	
0	0	0	0	0	2	514	509	517	32	0	
1	0	0	0	0	0	513	509	519	32	0	
2	0	0	0	0	0	514	509	512	31	0	
3	0	0	0	0	0	514	509	515	32	0	
4	0	0	0	0	0	516	510	513	32	0	
5	0	0	0	0	0	515	508	511	32	0	
6	0	0	0	0	0	515	509	505	32	0	
7	0	0	0	0	0	513	510	503	32	0	
8	0	0	0	0	2	512	508	500	31	0	
9	0	0	0	0	0	512	511	499	31	0	
10	0	0	0	0	0	514	512	503	32	0	
11	0	0	0	0	0	514	511	505	32	0	
12	0	0	0	0	0	514	507	509	32	0	
13	0	0	0	0	0	513	509	512	31	0	
14	0	0	0	0	0	512	505	512	31	0	
15	0	0	0	0	0	512	508	518	32	0	
0	0	0	0	0	2	512	509	517	32	0	
1	0	0	0	0	0	514	510	519	32	0	
2	0	0	0	0	0	512	510	514	32	0	
3	0	0	0	0	0	514	510	514	32	0	
4	0	0	0	0	0	515	511	514	32	0	
5	0	0	0	0	0	515	513	512	32	0	
6	0	0	0	0	0	516	509	511	32	0	
7	0	0	0	0	0	513	510	504	31	0	
8	0	0	0	0	3	515	513	507	32	0	
9	0	0	0	0	0	515	511	504	31	0	
10	0	0	0	0	0	514	511	500	31	0	
11	0	0	0	0	0	513	511	504	31	0	
12	0	0	0	0	0	512	510	505	32	0	
13	0	0	0	0	0	513	512	507	31	0	
14	0	0	0	0	0	515	508	508	32	0	
15	0	0	0	0	0	514	508	511	32	0	
0	0	0	0	0	2	515	512	515	32	0	
1	0	0	0	0	0	515	508	514	31	0	
2	0	0	0	0	0	512	507	516	31	0	
3	0	0	0	0	0	511	507	518	31	0	
4	0	0	0	0	0	512	510	519	31	0	
5	0	0	0	0	0	515	510	519	32	0	
6	0	0	0	0	0	513	506	513	31	0	
7	0	0	0	0	0	513	508	507	31	0	
8	0	0	0	0	2	515	508	505	31	0	
9	0	0	0	0	0	514	511	502	32	0	
10	0	0	0	0	0	514	510	498	31	0	
11	0	0	0	0	0	512	507	501	32	0	
12	0	0	0	0	0	513	508	503	31	0	
13	0	0	0	0	0	512	509	509	32	0	
14	0	0	0	0	0	513	509	511	32	0	
15	0	0	0	0	0	514	510	515	32	0	
0	0	0	0	0	2	515	510	515	32	0	
1	0	0	0	0	0	515	509	518	32	0	
2	0	0	0	0	0	514	510	521	32	0	
3	0	0	0	0	0	514	509	518	31	0	
4	0	0	0	0	0	517	510	519	32	0	
5	0	0	0	0	0	517	510	515	31	0	
6	0	0	0	0	0	515	510	514	31	0	
7	0	0	0	0	0	515	513	511	32	0	
8	0	0	0	0	2	515	511	512	31	0	
9	0	0	0	0	0	511	510	504	32	0	
10	0	0	0	0	0	511	509	504	31	0	
11	0	0	0	0	0	512	506	506	31	0	
12	0	0	0	0	0	512	510	504	32	0	
13	0	0	0	0	0	514	510	504	32	0	
14	0	0	0	0	0	513	508	510	32	0	
15	0	0	0	0	0	512	510	509	32	0	
0	0	0	0	0	2	515	510	511	32	0	
1	0	0	0	0	0	515	510	514	32	0	
2	0	0	0	0	0	512	511	519	31	0	
3	0	0	0	0	0	513	512	519	32	0	
4	0	0	0	0	0	513	511	516	31	0	
5	0	0	0	0	0	510	511	513	31	0	
6	0	0	0	0	0	513	510	513	31	0	
7	0	0	0	0	0	516	508	512	32	0	
8	0	0	0	0	2	516	508	509	32	0	
9	0	0	0	0	0	514	510	504	31	0	
10	0	0	0	0	0	513	512	502	32	0	
11	0	0	0	0	0	513	512	500	32	0	
12	0	0	0	0	0	514	508	500	32	0	
13	0	0	0	0	0	512	509	502	32	0	
14	0	0	0	0	0	514	510	504	32	0	
15	0	0	0	0	0	512	508	504	31	0	
0	0	0	0	0	2	512	508	507	31	0	
1	0	0	0	0	0	514	509	508	31	0	
2	0	0	0	0	0	515	511	516	31	0	
3	0	0	0	0	0	518	508	514	31	0	
4	0	0	0	0	0	516	508	517	31	0	
5	0	0	0	0	0	513	509	520	32	0	
6	0	0	0	0	0	514	507	515	31	0	
7	0	0	0	0	0	515	509	514	32	0	
8	0	0	0	0	1	515	508	509	31	0	
9	0	0	0	0	0	514	510	511	32	0	
10	0	0	0	0	0	514	510	511	32	0	
11	0	0	0	0	0	512	510	503	32	0	
12	0	0	0	0	0	514	513	504	31	0	
13	0	0	0	0	0	511	511	502	32	0	
14	0	0	0	0	0	515	509	505	31	0	
15	0	0	0	0	0	512	508	505	31	0	
0	0	0	0	0	1	513	509	504	31	0	
1	0	0	0	0	0	514	512	510	32	0	
2	0	0	0	0	0	510	511	513	32	0	
3	0	0	0	0	0	512	511	517	31	0	
4	0	0	0	0	0	513	508	518	32	0	
5	0	0	0	0	0	515	510	520	32	0	
6	0	0	0	0	0	514	511	519	32	0	
7	0	0	0	0	0	516	511	515	31	0	
8	0	0	0	0	1	515	511	516	32	0	
9	0	0	0	0	0	513	510	511	32	0	
10	0	0	0	0	0	516	509	507	32	0	
11	0	0	0	0	0	515	508	507	32	0	
12	0	0	0	0	0	514	509	505	32	0	
13	0	0	0	0	0	512	508	507	31	0	
14	0	0	0	0	0	514	509	505	31	0	
15	0	0	0	0	0	513	509	505	31	0	
0	0	0	0	0	2	512	508	504	31	0	
1	0	0	0	0	0	514	509	508	31	0	
2	0	0	0	0	0	513	511	512	31	0	
3	0	0	0	0	0	514	512	516	32	0	
4	0	0	0	0	0	512	510	520	31	0	
5	0	0	0	0	0	514	511	520	31	0	
6	0	0	0	0	0	512	512	516	31	0	
7	0	0	0	0	0	513	510	512	32	0	
8	0	0	0	0	2	516	509	515	32	0	
9	0	0	0	0	0	515	509	513	32	0	
10	0	0	0	0	0	513	508	510	32	0	
11	0	0	0	0	0	514	508	507	32	0	
12	0	0	0	0	0	517	508	506	32	0	
13	0	0	0	0	0	514	509	504	32	0	
14	0	0	0	0	0	513	508	502	31	0	
15	0	0	0	0	0	515	510	503	32	0	
0	0	0	0	0	2	512	508	507	32	0	
1	0	0	0	0	0	512	511	509	32	0	
2	0	0	0	0	0	511	510	510	32	0	
3	0	0	0	0	0	515	511	512	32	0	
4	0	0	0	0	0	514	508	514	32	0	
5	0	0	0	0	0	515	509	517	31	0	
6	0	0	0	0	0	514	508	516	31	0	
7	0	0	0	0	0	514	510	518	31	0	
8	0	0	0	0	2	515	509	514	31	0	
9	0	0	0	0	0	515	509	515	31	0	
10	0	0	0	0	0	515	511	509	31	0	
11	0	0	0	0	0	515	509	509	32	0	
12	0	0	0	0	0	513	510	508	32	0	
13	0	0	0	0	0	512	511	507	31	0	
14	0	0	0	0	0	511	512	505	32	0	
15	0	0	0	0	0	512	512	502	32	0	
0	0	0	0	0	2	513	514	504	32	0	
1	0	0	0	0	0	513	509	509	32	0	
2	0	0	0	0	0	515	511	508	31	0	
3	0	0	0	0	0	516	509	510	32	0	
4	0	0	0	0	0	515	507	510	31	0	
5	0	0	0	0	0	514	509	519	32	0	
6	0	0	0	0	0	514	509	521	31	0	
7	0	0	0	0	0	513	509	523	31	0	
8	0	0	0	0	2	516	510	521	31	0	
9	0	0	0	0	0	514	510	518	31	0	
10	0	0	0	0	0	513	511	515	31	0	
11	0	0	0	0	0	512	512	513	31	0	
12	0	0	0	0	0	512	510	507	32	0	
13	0	0	0	0	0	513	509	504	32	0	
14	0	0	0	0	0	513	509	502	32	0	
15	0	0	0	0	0	512	508	504	32	0	
0	0	0	0	0	2	512	510	504	31	0	
1	0	0	0	0	0	513	509	502	31	0	
2	0	0	0	0	0	514	511	502	32	0	
3	0	0	0	0	0	516	511	505	32	0	
4	0	0	0	0	0	515	510	509	32	0	
5	0	0	0	0	0	515	508	513	32	0	
6	0	0	0	0	0	516	508	518	32	0	
7	0	0	0	0	0	514	507	516	32	0	
8	0	0	0	0	2	514	510	518	32	0	
9	0	0	0	0	0	514	512	513	31	0	
10	0	0	0	0	0	514	510	511	32	0	
11	0	0	0	0	0	513	511	512	32	0	
12	0	0	0	0	0	510	511	507	32	0	
13	0	0	0	0	0	512	510	508	32	0	
14	0	0	0	0	0	513	512	502	31	0	
15	0	0	0	0	0	512	512	505	31	0	
0	0	0	0	0	2	513	511	506	31	0	
1	0	0	0	0	0	513	509	511	31	0	
2	0	0	0	0	0	512	509	511	31	0	
3	0	0	0	0	0	515	510	513	31	0	
4	0	0	0	0	0	513	509	514	31	0	
5	0	0	0	0	0	515	508	516	31	0	
6	0	0	0	0	0	514	511	519	31	0	
7	0	0	0	0	0	514	510	516	31	0	
8	0	0	0	0	2	516	510	516	32	0	
9	0	0	0	0	0	516	509	516	32	0	
10	0	0	0	0	0	516	509	517	32	0	
11	0	0	0	0	0	513	508	513	32	0	
12	0	0	0	0	0	516	511	515	32	0	
13	0	0	0	0	0	513	508	510	31	0	
14	0	0	0	0	0	515	508	505	32	0	
15	0	0	0	0	0	514	509	502	31	0	
0	0	0	0	0	2	516	512	504	32	0	
1	0	0	0	0	0	513	509	503	31	0	
2	0	0	0	0	0	513	508	502	31	0	
3	0	0	0	0	0	514	508	506	31	0	
4	0	0	0	0	0	513	510	507	31	0	
5	0	0	0	0	0	512	509	508	32	0	
6	0	0	0	0	0	513	508	513	32	0	
7	0	0	0	0	0	514	511	515	32	0	
8	0	0	0	0	1	513	510	519	32	0	
9	0	0	0	0	0	516	508	517	31	0	
10	0	0	0	0	0	515	508	515	32	0	
11	0	0	0	0	0	515	508	515	32	0	
12	0	0	0	0	0	511	512	511	32	0	
13	0	0	0	0	0	513	513	508	32	0	
14	0	0	0	0	0	515	509	504	31	0	
15	0	0	0	0	0	513	510	502	32	0	
0	0	0	0	0	1	512	509	502	32	0	
1	0	0	0	0	0	514	508	502	32	0	
2	0	0	0	0	0	515	509	502	31	0	
3	0	0	0	0	0	511	510	503	31	0	
4	0	0	0	0	0	512	510	505	31	0	
5	0	0	0	0	0	513	511	511	31	0	
6	0	0	0	0	0	513	510	511	32	0	
7	0	0	0	0	0	515	508	513	32	0	
8	0	0	0	0	1	517	508	514	32	0	
9	0	0	0	0	0	515	508	516	32	0	
10	0	0	0	0	0	515	509	517	31	0	
11	0	0	0	0	0	514	511	519	31	0	
12	0	0	0	0	0	515	511	515	31	0	
13	0	0	0	0	0	512	508	508	32	0	
14	0	0	0	0	0	511	510	509	32	0	
15	0	0	0	0	0	513	509	505	32	0	
0	0	0	0	0	2	512	508	504	32	0	
1	0	0	0	0	0	512	510	503	32	0	
2	0	0	0	0	0	514	508	506	32	0	
3	0	0	0	0	0	513	508	506	32	0	
4	0	0	0	0	0	514	508	502	32	0	
5	0	0	0	0	0	514	512	505	31	0	
6	0	0	0	0	0	513	512	508	31	0	
7	0	0	0	0	0	514	511	509	31	0	
8	0	0	0	0	2	514	510	513	32	0	
9	0	0	0	0	0	513	510	518	32	0	
10	0	0	0	0	0	514	510	519	32	0	
11	0	0	0	0	0	514	510	519	32	0	
12	0	0	0	0	0	515	508	518	32	0	
13	0	0	0	0	0	516	508	517	32	0	
14	0	0	0	0	0	515	508	513	31	0	
15	0	0	0	0	0	514	511	510	31	0	
0	0	0	0	0	2	517	510	513	32	0	
1	0	0	0	0	0	514	510	503	32	0	
2	0	0	0	0	0	514	511	503	31	0	
3	0	0	0	0	0	515	510	499	31	0	
4	0	0	0	0	0	512	511	501	31	0	
5	0	0	0	0	0	512	511	503	31	0	
6	0	0	0	0	0	512	508	507	31	0	
7	0	0	0	0	0	511	508	512	31	0	
8	0	0	0	0	2	513	510	515	31	0	
9	0	0	0	0	0	512	510	519	32	0	
10	0	0	0	0	0	514	509	522	31	0	
11	0	0	0	0	0	515	508	518	31	0	
12	0	0	0	0	0	514	509	515	31	0	
13	0	0	0	0	0	515	508	515	32	0	
14	0	0	0	0	0	513	508	515	32	0	
15	0	0	0	0	0	513	510	511	32	0	
0	0	0	0	0	2	514	510	509	32	0	
1	0	0	0	0	0	514	511	505	31	0	
2	0	0	0	0	0	515	512	504	31	0	
3	0	0	0	0	0	514	511	503	31	0	
4	0	0	0	0	0	514	509	509	31	0	
5	0	0	0	0	0	513	508	507	31	0	
6	0	0	0	0	0	514	510	510	32	0	
7	0	0	0	0	0	512	509	510	32	0	
8	0	0	0	0	2	512	512	513	32	0	
9	0	0	0	0	0	513	510	514	32	0	
10	0	0	0	0	0	513	510	519	32	0	
11	0	0	0	0	0	517	510	519	32	0	
12	0	0	0	0	0	514	507	518	31	0	
13	0	0	0	0	0	512	504	515	32	0	
14	0	0	0	0	0	513	507	512	32	0	
15	0	0	0	0	0	514	510	510	31	0	
0	0	0	0	0	2	515	512	512	31	0	
1	0	0	0	0	0	513	511	507	32	0	
2	0	0	0	0	0	513	513	504	31	0	
3	0	0	0	0	0	513	507	502	31	0	
4	0	0	0	0	0	514	510	504	31	0	
5	0	0	0	0	0	515	510	501	31	0	
6	0	0	0	0	0	513	512	504	32	0	
7	0	0	0	0	0	512	512	506	31	0	
8	0	0	0	0	2	515	511	507	32	0	
9	0	0	0	0	0	513	511	510	31	0	
10	0	0	0	0	0	515	510	511	31	0	
11	0	0	0	0	0	516	508	516	31	0	
12	0	0	0	0	0	515	508	519	31	0	
13	0	0	0	0	0	514	509	519	31	0	
14	0	0	0	0	0	515	509	516	31	0	
15	0	0	0	0	0	513	510	518	32	0	
0	0	0	0	0	2	511	508	512	32	0	
1	0	0	0	0	0	513	507	511	32	0	
2	0	0	0	0	0	515	510	507	32	0	
3	0	0	0	0	0	513	507	508	32	0	
4	0	0	0	0	0	515	508	506	32	0	
5	0	0	0	0	0	513	507	505	32	0	
6	0	0	0	0	0	513	506	501	31	0	
7	0	0	0	0	0	514	509	504	31	0	
8	0	0	0	0	2	514	510	503	31	0	
9	0	0	0	0	0	513	511	503	31	0	
10	0	0	0	0	0	514	510	510	31	0	
11	0	0	0	0	0	514	511	516	31	0	
12	0	0	0	0	0	512	511	519	31	0	
13	0	0	0	0	0	514	512	518	31	0	
14	0	0	0	0	0	515	511	517	31	0	
15	0	0	0	0	0	515	511	516	32	0	
0	0	0	0	0	1	513	510	514	32	0	
1	0	0	0	0	0	514	508	517	32	0	
2	0	0	0	0	0	513	508	512	32	0	
3	0	0	0	0	0	516	508	509	32	0	
4	0	0	0	0	0	515	509	505	32	0	
5	0	0	0	0	0	513	508	502	32	0	
6	0	0	0	0	0	512	508	501	31	0	
7	0	0	0	0	0	513	509	501	31	0	
8	0	0	0	0	1	512	513	503	31	0	
9	0	0	0	0	0	512	512	505	31	0	
10	0	0	0	0	0	512	510	507	32	0	
11	0	0	0	0	0	511	510	513	32	0	
12	0	0	0	0	0	512	509	519	31	0	
13	0	0	0	0	0	513	510	520	31	0	
14	0	0	0	0	0	513	509	516	32	0	
15	0	0	0	0	0	517	510	518	32	0	
0	0	0	0	0	1	512	509	516	32	0	
1	0	0	0	0	0	514	511	515	32	0	
2	0	0	0	0	0	514	513	512	32	0	
3	0	0	0	0	0	512	510	510	32	0	
4	0	0	0	0	0	513	511	507	31	0	
5	0	0	0	0	0	515	511	503	31	0	
6	0	0	0	0	0	514	512	499	32	0	
7	0	0	0	0	0	515	510	500	32	0	
8	0	0	0	0	2	514	509	501	31	0	
9	0	0	0	0	0	513	511	505	32	0	
10	0	0	0	0	0	516	509	509	31	0	
11	0	0	0	0	0	513	508	509	31	0	
12	0	0	0	0	0	516	508	515	31	0	
13	0	0	0	0	0	515	508	521	32	0	
14	0	0	0	0	0	513	508	520	32	0	
15	0	0	0	0	0	513	509	519	31	0	
0	0	0	0	0	2	514	509	518	31	0	
1	0	0	0	0	0	515	511	519	31	0	
2	0	0	0	0	0	513	511	513	32	0	
3	0	0	0	0	0	512	509	511	31	0	
4	0	0	0	0	0	515	510	510	32	0	
5	0	0	0	0	0	512	508	503	32	0	
6	0	0	0	0	0	514	508	503	32	0	
7	0	0	0	0	0	512	508	504	32	0	
8	0	0	0	0	2	515	508	505	32	0	
9	0	0	0	0	0	514	508	505	32	0	
10	0	0	0	0	0	515	509	506	32	0	
11	0	0	0	0	0	515	509	506	31	0	
12	0	0	0	0	0	516	510	513	31	0	
13	0	0	0	0	0	513	510	511	32	0	
14	0	0	0	0	0	514	511	513	32	0	
15	0	0	0	0	0	513	509	518	31	0	
0	0	0	0	0	2	511	510	516	32	0	
1	0	0	0	0	0	513	513	515	31	0	
2	0	0	0	0	0	514	512	513	31	0	
3	0	0	0	0	0	512	511	512	32	0	
4	0	0	0	0	0	510	508	511	32	0	
5	0	0	0	0	0	513	511	506	32	0	
6	0	0	0	0	0	515	510	503	32	0	
7	0	0	0	0	0	512	511	506	31	0	
8	0	0	0	0	2	514	511	504	31	0	
9	0	0	0	0	0	514	513	505	32	0	
10	0	0	0	0	0	513	510	505	32	0	
11	0	0	0	0	0	512	511	508	31	0	
12	0	0	0	0	0	513	510	511	31	0	
13	0	0	0	0	0	512	509	518	31	0	
14	0	0	0	0	0	515	506	517	31	0	
15	0	0	0	0	0	515	509	518	32	0	
0	0	0	0	0	2	515	507	518	31	0	
1	0	0	0	0	0	513	508	518	32	0	
2	0	0	0	0	0	515	508	515	31	0	
3	0	0	0	0	0	513	508	515	31	0	
4	0	0	0	0	0	516	509	511	32	0	
5	0	0	0	0	0	514	508	503	32	0	
6	0	0	0	0	0	513	511	505	31	0	
7	0	0	0	0	0	516	511	503	32	0	
8	0	0	0	0	2	513	510	502	31	0	
9	0	0	0	0	0	515	510	503	31	0	
10	0	0	0	0	0	511	510	505	32	0	
11	0	0	0	0	0	513	511	507	32	0	
12	0	0	0	0	0	514	507	509	32	0	
13	0	0	0	0	0	512	508	511	32	0	
14	0	0	0	0	0	515	508	515	31	0	
15	0	0	0	0	0	514	508	516	31	0	
0	0	0	0	0	2	515	508	519	31	0	
1	0	0	0	0	0	515	508	520	31	0	
2	0	0	0	0	0	515	511	515	32	0	
3	0	0	0	0	0	516	511	517	32	0	
4	0	0	0	0	0	514	510	515	32	0	
5	0	0	0	0	0	515	508	512	31	0	
6	0	0	0	0	0	515	510	511	32	0	
7	0	0	0	0	0	514	511	507	31	0	
8	0	0	0	0	2	513	511	498	31	0	
9	0	0	0	0	0	513	512	498	32	0	
10	0	0	0	0	0	514	510	504	32	0	
11	0	0	0	0	0	513	509	504	32	0	
12	0	0	0	0	0	512	511	508	31	0	
13	0	0	0	0	0	510	510	512	32	0	
14	0	0	0	0	0	515	509	513	31	0	
15	0	0	0	0	0	515	511	517	32	0	
0	0	0	0	0	3	513	509	516	31	0	
1	0	0	0	0	0	513	512	518	31	0	
2	0	0	0	0	0	513	511	516	32	0	
3	0	0	0	0	0	513	512	513	31	0	
4	0	0	0	0	0	513	509	511	31	0	
5	0	0	0	0	0	514	508	511	32	0	
6	0	0	0	0	0	513	510	506	32	0	
7	0	0	0	0	0	515	509	503	32	0	
8	0	0	0	0	2	515	508	506	32	0	
9	0	0	0	0	0	515	510	504	32	0	
10	0	0	0	0	0	515	511	503	31	0	
11	0	0	0	0	0	513	510	505	31	0	
12	0	0	0	0	0	515	508	511	32	0	
13	0	0	0	0	0	513	508	510	32	0	
14	0	0	0	0	0	512	508	512	31	0	
15	0	0	0	0	0	512	510	515	31	0	
0	0	0	0	0	1	511	512	517	32	0	
1	0	0	0	0	0	515	510	518	32	0	
2	0	0	0	0	0	513	511	520	31	0	
3	0	0	0	0	0	514	511	519	31	0	
4	0	0	0	0	0	514	508	515	31	0	
5	0	0	0	0	0	514	510	516	32	0	
6	0	0	0	0	0	513	509	515	32	0	
7	0	0	0	0	0	511	508	507	31	0	
8	0	0	0	0	1	512	509	504	32	0	
9	0	0	0	0	0	513	508	503	32	0	
10	0	0	0	0	0	514	507	503	32	0	
11	0	0	0	0	0	515	508	504	32	0	
12	0	0	0	0	0	513	510	502	32	0	
13	0	0	0	0	0	515	511	500	32	0	
14	0	0	0	0	0	515	511	501	31	0	
15	0	0	0	0	0	514	513	508	31	0	
0	0	0	0	0	1	519	511	510	31	0	
1	0	0	0	0	0	516	511	516	31	0	
2	0	0	0	0	0	514	511	519	32	0	
3	0	0	0	0	0	513	511	522	31	0	
4	0	0	0	0	0	512	510	519	32	0	
5	0	0	0	0	0	513	509	516	32	0	
6	0	0	0	0	0	510	510	515	32	0	
7	0	0	0	0	0	511	510	511	32	0	
8	0	0	0	0	2	514	509	507	32	0	
9	0	0	0	0	0	514	510	504	32	0	
10	0	0	0	0	0	513	509	502	32	0	
11	0	0	0	0	0	513	510	502	31	0	
12	0	0	0	0	0	515	508	502	32	0	
13	0	0	0	0	0	513	508	504	32	0	
14	0	0	0	0	0	512	510	508	31	0	
15	0	0	0	0	0	510	508	509	32	0	
0	0	0	0	0	2	514	508	510	32	0	
1	0	0	0	0	0	515	509	512	31	0	
2	0	0	0	0	0	513	508	517	31	0	
3	0	0	0	0	0	517	510	515	31	0	
4	0	0	0	0	0	514	508	518	32	0	
5	0	0	0	0	0	512	510	516	31	0	
6	0	0	0	0	0	516	510	515	31	0	
7	0	0	0	0	0	515	510	513	31	0	
8	0	0	0	0	2	516	510	509	32	0	
9	0	0	0	0	0	515	510	507	32	0	
10	0	0	0	0	0	515	510	503	32	0	
11	0	0	0	0	0	512	510	504	32	0	
12	0	0	0	0	0	514	510	503	32	0	
13	0	0	0	0	0	512	510	507	31	0	
14	0	0	0	0	0	514	509	507	31	0	
15	0	0	0	0	0	514	511	507	32	0	
0	0	0	0	0	2	515	513	509	32	0	
1	0	0	0	0	0	514	511	514	31	0	
2	0	0	0	0	0	512	511	513	32	0	
3	0	0	0	0	0	512	508	513	31	0	
4	0	0	0	0	0	512	508	514	31	0	
5	0	0	0	0	0	513	506	519	31	0	
6	0	0	0	0	0	515	508	516	32	0	
7	0	0	0	0	0	515	507	513	32	0	
8	0	0	0	0	2	513	508	513	31	0	
9	0	0	0	0	0	514	508	507	32	0	
10	0	0	0	0	0	515	509	505	31	0	
11	0	0	0	0	0	513	511	504	31	0	
12	0	0	0	0	0	511	512	503	31	0	
13	0	0	0	0	0	512	509	501	32	0	
14	0	0	0	0	0	511	510	500	31	0	
15	0	0	0	0	0	514	511	504	32	0	
0	0	0	0	0	2	515	511	510	32	0	
1	0	0	0	0	0	514	511	512	31	0	
2	0	0	0	0	0	515	514	519	32	0	
3	0	0	0	0	0	513	511	523	32	0	
4	0	0	0	0	0	514	510	522	32	0	
5	0	0	0	0	0	516	512	520	32	0	
6	0	0	0	0	0	516	510	514	32	0	
7	0	0	0	0	0	519	510	507	31	0	
8	0	0	0	0	2	517	509	505	31	0	
9	0	0	0	0	0	516	512	503	32	0	
10	0	0	0	0	0	514	510	501	32	0	
11	0	0	0	0	0	513	509	498	31	0	
12	0	0	0	0	0	512	508	498	31	0	
13	0	0	0	0	0	512	508	499	32	0	
14	0	0	0	0	0	512	508	502	32	0	
15	0	0	0	0	0	513	508	508	32	0	
0	0	0	0	0	2	513	510	511	31	0	
1	0	0	0	0	0	513	509	515	32	0	
2	0	0	0	0	0	514	509	513	32	0	
3	0	0	0	0	0	513	508	518	32	0	
4	0	0	0	0	0	515	511	520	32	0	
5	0	0	0	0	0	515	511	516	31	0	
6	0	0	0	0	0	511	511	513	31	0	
7	0	0	0	0	0	512	511	510	31	0	
8	0	0	0	0	2	513	509	510	31	0	
9	0	0	0	0	0	513	507	509	31	0	
10	0	0	0	0	0	512	507	505	31	0	
11	0	0	0	0	0	511	508	504	32	0	
12	0	0	0	0	0	511	506	499	31	0	
13	0	0	0	0	0	513	508	496	32	0	
14	0	0	0	0	0	514	510	499	31	0	
15	0	0	0	0	0	513	511	500	31	0	
0	0	0	0	0	2	515	511	505	31	0	
1	0	0	0	0	0	513	510	505	31	0	
2	0	0	0	0	0	512	510	508	31	0	
3	0	0	0	0	0	512	511	513	31	0	
4	0	0	0	0	0	513	510	513	31	0	
5	0	0	0	0	0	514	509	514	32	0	
6	0	0	0	0	0	515	508	513	32	0	
7	0	0	0	0	0	513	509	512	31	0	
8	0	0	0	0	2	511	510	515	32	0	
9	0	0	0	0	0	512	508	510	32	0	
10	0	0	0	0	0	516	509	513	32	0	
11	0	0	0	0	0	512	508	509	32	0	
12	0	0	0	0	0	516	510	502	32	0	
13	0	0	0	0	0	515	512	501	32	0	
14	0	0	0	0	0	513	512	502	31	0	
15	0	0	0	0	0	512	512	503	31	0	
0	0	0	0	0	1	515	511	507	31	0	
1	0	0	0	0	0	519	511	508	32	0	
2	0	0	0	0	0	515	508	510	32	0	
3	0	0	0	0	0	515	510	507	32	0	
4	0	0	0	0	0	513	510	506	32	0	
5	0	0	0	0	0	514	508	511	31	0	
6	0	0	0	0	0	515	508	514	31	0	
7	0	0	0	0	0	512	510	511	32	0	
8	0	0	0	0	1	512	510	503	31	0	
9	0	0	0	0	0	513	508	505	32	0	
10	0	0	0	0	0	513	510	505	31	0	
11	0	0	0	0	0	518	512	517	32	0	
12	0	0	0	0	0	517	512	519	32	0	
13	0	0	0	0	0	514	511	518	32	0	
14	0	0	0	0	0	513	511	521	32	0	
15	0	0	0	0	0	512	514	508	32	0	
0	0	0	0	0	1	513	512	496	32	0	
1	0	0	0	0	0	517	509	495	32	0	
2	0	0	0	0	0	518	508	491	31	0	
3	0	0	0	0	0	513	508	493	31	0	
4	0	0	0	0	0	511	511	488	31	0	
5	0	0	0	0	0	510	512	504	31	0	
6	0	0	0	0	0	513	512	509	31	0	
7	0	0	0	0	0	515	511	507	31	0	
8	0	0	0	0	2	513	508	515	32	0	
9	0	0	0	0	0	512	508	510	32	0	
10	0	0	0	0	0	515	508	509	32	0	
11	0	0	0	0	0	516	508	516	32	0	
12	0	0	0	0	0	513	510	515	32	0	
13	0	0	0	0	0	513	511	513	32	0	
14	0	0	0	0	0	516	509	503	32	0	
15	0	0	0	0	0	514	508	496	32	0	
0	0	0	0	0	2	514	510	504	32	0	
1	0	0	0	0	0	513	510	513	31	0	
2	0	0	0	0	0	514	510	511	31	0	
3	0	0	0	0	0	512	508	510	31	0	
4	0	0	0	0	0	511	507	504	31	0	
5	0	0	0	0	0	513	510	503	31	0	
6	0	0	0	0	0	513	509	505	31	0	
7	0	0	0	0	0	513	509	497	31	0	
8	0	0	0	0	2	516	511	490	31	0	
9	0	0	0	0	0	517	511	494	31	0	
10	0	0	0	0	0	516	508	499	32	0	
11	0	0	0	0	0	515	508	496	31	0	
12	0	0	0	0	0	513	510	505	31	0	
13	0	0	0	0	0	512	507	503	32	0	
14	0	0	0	0	0	514	510	501	32	0	
15	0	0	0	0	0	513	513	496	31	0	
0	0	0	0	0	2	514	511	492	31	0	
1	0	0	0	0	0	514	513	492	31	0	
2	0	0	0	0	0	514	515	494	31	0	
3	0	0	0	0	0	512	511	508	32	0	
4	0	0	0	0	0	514	507	507	32	0	
5	0	0	0	0	0	513	508	495	32	0	
6	0	0	0	0	0	512	505	497	32	0	
7	0	0	0	0	0	514	508	500	31	0	
8	0	0	0	0	2	518	508	496	31	0	
9	0	0	0	0	0	514	512	496	31	0	
10	0	0	0	0	0	514	512	496	31	0	
11	0	0	0	0	0	510	510	497	32	0	
12	0	0	0	0	0	510	504	508	32	0	
13	0	0	0	0	0	513	506	504	32	0	
14	0	0	0	0	0	514	507	505	32	0	
15	0	0	0	0	0	513	510	504	31	0	
0	0	0	0	0	2	516	515	498	31	0	
1	0	0	0	0	0	516	512	485	31	0	
2	0	0	0	0	0	515	514	485	31	0	
3	0	0	0	0	0	513	512	484	32	0	
4	0	0	0	0	0	514	508	496	32	0	
5	0	0	0	0	0	510	505	501	32	0	
6	0	0	0	0	0	513	506	500	32	0	
7	0	0	0	0	0	513	509	507	32	0	
8	0	0	0	0	2	513	511	515	32	0	
9	0	0	0	0	0	513	512	516	31	0	
10	0	0	0	0	0	516	513	508	31	0	
11	0	0	0	0	0	514	512	503	31	0	
12	0	0	0	0	0	513	510	502	32	0	
13	0	0	0	0	0	514	505	501	32	0	
14	0	0	0	0	0	514	507	502	31	0	
15	0	0	0	0	0	516	510	500	31	0	
0	0	0	0	0	2	514	511	506	31	0	
1	0	0	0	0	0	514	511	519	31	0	
2	0	0	0	0	0	515	511	516	31	0	
3	0	0	0	0	0	516	512	515	31	0	
4	0	0	0	0	0	515	510	499	31	0	
5	0	0	0	0	0	515	510	497	32	0	
6	0	0	0	0	0	509	509	502	32	0	
7	0	0	0	0	0	512	507	504	32	0	
8	0	0	0	0	2	513	508	504	32	0	
9	0	0	0	0	0	511	508	507	32	0	
10	0	0	0	0	0	516	509	511	32	0	
11	0	0	0	0	0	515	509	524	32	0	
12	0	0	0	0	0	515	508	534	31	0	
13	0	0	0	0	0	518	511	531	31	0	
14	0	0	0	0	0	515	510	519	32	0	
15	0	0	0	0	0	515	511	518	32	0	
0	0	0	0	0	2	513	509	506	32	0	
1	0	0	0	0	0	510	509	500	32	0	
2	0	0	0	0	0	508	510	490	31	0	
3	0	0	0	0	0	514	508	484	31	0	
4	0	0	0	0	0	515	509	489	31	0	
5	0	0	0	0	0	514	511	501	31	0	
6	0	0	0	0	0	515	510	515	31	0	
7	0	0	0	0	0	515	508	521	32	0	
8	0	0	0	0	1	513	508	527	32	0	
9	0	0	0	0	0	513	510	531	32	0	
10	0	0	0	0	0	513	510	536	32	0	
11	0	0	0	0	0	513	505	524	32	0	
12	0	0	0	0	0	515	506	513	32	0	
13	0	0	0	0	0	516	509	503	31	0	
14	0	0	0	0	0	514	512	510	31	0	
15	0	0	0	0	0	516	514	507	31	0	
0	0	0	0	0	1	517	514	504	31	0	
1	0	0	0	0	0	518	515	496	31	0	
2	0	0	0	0	0	517	512	496	31	0	
3	0	0	0	0	0	512	506	496	31	0	
4	0	0	0	0	0	510	507	490	31	0	
5	0	0	0	0	0	512	512	491	31	0	
6	0	0	0	0	0	515	510	492	31	0	
7	0	0	0	0	0	513	512	500	32	0	
8	0	0	0	0	1	516	508	508	32	0	
9	0	0	0	0	0	515	507	519	32	0	
10	0	0	0	0	0	510	505	524	32	0	
11	0	0	0	0	0	515	509	532	32	0	
12	0	0	0	0	0	514	509	533	32	0	
13	0	0	0	0	0	512	508	529	31	0	
14	0	0	0	0	0	511	511	516	31	0	
15	0	0	0	0	0	515	511	507	31	0	
0	0	0	0	0	2	517	510	500	31	0	
1	0	0	0	0	0	514	510	498	31	0	
2	0	0	0	0	0	516	512	496	31	0	
3	0	0	0	0	0	515	511	499	31	0	
4	0	0	0	0	0	515	513	503	31	0	
5	0	0	0	0	0	514	512	511	32	0	
6	0	0	0	0	0	512	510	522	32	0	
7	0	0	0	0	0	510	511	526	32	0	
8	0	0	0	0	2	509	508	531	32	0	
9	0	0	0	0	0	510	507	531	32	0	
10	0	0	0	0	0	509	508	526	32	0	
11	0	0	0	0	0	512	508	530	32	0	
12	0	0	0	0	0	514	507	527	32	0	
13	0	0	0	0	0	517	507	521	32	0	
14	0	0	0	0	0	518	508	519	31	0	
15	0	0	0	0	0	516	508	520	32	0	
0	0	0	0	0	2	515	508	519	31	0	
1	0	0	0	0	0	515	511	521	31	0	
2	0	0	0	0	0	512	515	525	31	0	
3	0	0	0	0	0	514	511	526	32	0	
4	0	0	0	0	0	511	507	519	32	0	
5	0	0	0	0	0	510	508	518	32	0	
6	0	0	0	0	0	511	508	517	32	0	
7	0	0	0	0	0	511	508	515	32	0	
8	0	0	0	0	2	512	509	512	31	0	
9	0	0	0	0	0	519	510	505	31	0	
10	0	0	0	0	0	520	512	505	32	0	
11	0	0	0	0	0	519	514	519	31	0	
12	0	0	0	0	0	515	508	527	31	0	
13	0	0	0	0	0	513	507	539	32	0	
14	0	0	0	0	0	509	507	540	32	0	
15	0	0	0	0	0	512	506	539	32	0	
0	0	0	0	0	2	514	511	529	32	0	
1	0	0	0	0	0	515	512	523	32	0	
2	0	0	0	0	0	514	512	519	32	0	
3	0	0	0	0	0	512	508	513	32	0	
4	0	0	0	0	0	511	508	505	31	0	
5	0	0	0	0	0	512	507	505	32	0	
6	0	0	0	0	0	513	508	507	31	0	
7	0	0	0	0	0	512	509	509	31	0	
8	0	0	0	0	2	513	513	519	31	0	
9	0	0	0	0	0	515	511	527	32	0	
10	0	0	0	0	0	512	509	529	32	0	
11	0	0	0	0	0	514	510	530	32	0	
12	0	0	0	0	0	515	511	529	32	0	
13	0	0	0	0	0	514	508	525	32	0	
14	0	0	0	0	0	512	508	521	32	0	
15	0	0	0	0	0	512	507	519	32	0	
0	0	0	0	0	2	512	506	516	32	0	
1	0	0	0	0	0	511	506	510	32	0	
2	0	0	0	0	0	515	510	511	31	0	
3	0	0	0	0	0	517	514	512	31	0	
4	0	0	0	0	0	519	518	509	31	0	
5	0	0	0	0	0	518	517	512	31	0	
6	0	0	0	0	0	516	515	512	31	0	
7	0	0	0	0	0	513	509	511	31	0	
8	0	0	0	0	2	515	509	516	32	0	
9	0	0	0	0	0	515	509	514	32	0	
10	0	0	0	0	0	515	510	513	32	0	
11	0	0	0	0	0	512	507	516	32	0	
12	0	0	0	0	0	513	508	520	32	0	
13	0	0	0	0	0	514	508	522	32	0	
14	0	0	0	0	0	514	510	526	32	0	
15	0	0	0	0	0	514	507	528	32	0	
0	0	0	0	0	2	510	508	532	32	0	
1	0	0	0	0	0	514	507	535	32	0	
2	0	0	0	0	0	512	509	531	32	0	
3	0	0	0	0	0	512	509	527	32	0	
4	0	0	0	0	0	510	510	518	32	0	
5	0	0	0	0	0	512	510	511	32	0	
6	0	0	0	0	0	514	512	509	32	0	
7	0	0	0	0	0	515	512	507	32	0	
8	0	0	0	0	2	516	510	505	32	0	
9	0	0	0	0	0	514	508	509	31	0	
10	0	0	0	0	0	513	509	514	31	0	
11	0	0	0	0	0	517	513	519	31	0	
12	0	0	0	0	0	516	513	527	31	0	
13	0	0	0	0	0	512	512	534	31	0	
14	0	0	0	0	0	512	511	535	31	0	
15	0	0	0	0	0	513	509	534	31	0	
0	0	0	0	0	2	515	509	529	32	0	
1	0	0	0	0	0	515	509	527	32	0	
2	0	0	0	0	0	516	509	518	32	0	
3	0	0	0	0	0	515	510	515	32	0	
4	0	0	0	0	0	517	510	511	32	0	
5	0	0	0	0	0	517	511	507	32	0	
6	0	0	0	0	0	511	511	516	32	0	
7	0	0	0	0	0	511	510	520	32	0	
8	0	0	0	0	1	513	509	518	31	0	
9	0	0	0	0	0	511	509	521	31	0	
10	0	0	0	0	0	513	510	519	31	0	
11	0	0	0	0	0	514	511	519	31	0	
12	0	0	0	0	0	515	507	518	32	0	
13	0	0	0	0	0	514	507	517	32	0	
14	0	0	0	0	0	512	507	519	32	0	
15	0	0	0	0	0	513	506	520	32	0	
0	0	0	0	0	1	514	511	520	32	0	
1	0	0	0	0	0	516	514	521	32	0	
2	0	0	0	0	0	515	511	527	31	0	
3	0	0	0	0	0	514	510	529	31	0	
4	0	0	0	0	0	512	508	523	32	0	
5	0	0	0	0	0	515	511	524	31	0	
6	0	0	0	0	0	514	510	516	32	0	
7	0	0	0	0	0	515	511	512	32	0	
8	0	0	0	0	1	514	510	510	32	0	
9	0	0	0	0	0	514	511	507	31	0	
10	0	0	0	0	0	513	507	510	32	0	
11	0	0	0	0	0	513	507	511	32	0	
12	0	0	0	0	0	514	506	516	32	0	
13	0	0	0	0	0	512	510	521	31	0	
14	0	0	0	0	0	514	509	528	32	0	
15	0	0	0	0	0	513	508	532	32	0	
0	0	0	0	0	2	515	508	535	31	0	
1	0	0	0	0	0	514	509	532	32	0	
2	0	0	0	0	0	515	509	528	31	0	
3	0	0	0	0	0	513	508	520	31	0	
4	0	0	0	0	0	513	510	517	32	0	
5	0	0	0	0	0	514	510	512	31	0	
6	0	0	0	0	0	512	507	505	31	0	
7	0	0	0	0	0	512	510	501	32	0	
8	0	0	0	0	2	515	510	498	31	0	
9	0	0	0	0	0	513	514	501	31	0	
10	0	0	0	0	0	515	513	508	32	0	
11	0	0	0	0	0	515	510	512	32	0	
12	0	0	0	0	0	515	510	517	31	0	
13	0	0	0	0	0	514	511	521	32	0	
14	0	0	0	0	0	515	511	520	31	0	
15	0	0	0	0	0	514	508	524	32	0	
0	0	0	0	0	2	513	508	532	32	0	
1	0	0	0	0	0	512	508	536	32	0	
2	0	0	0	0	0	514	506	530	32	0	
3	0	0	0	0	0	514	509	523	31	0	
4	0	0	0	0	0	514	510	523	32	0	
5	0	0	0	0	0	512	510	521	31	0	
6	0	0	0	0	0	513	511	524	32	0	
7	0	0	0	0	0	512	511	521	32	0	
8	0	0	0	0	2	510	510	517	31	0	
9	0	0	0	0	0	513	508	511	32	0	
10	0	0	0	0	0	512	510	512	31	0	
11	0	0	0	0	0	512	508	511	31	0	
12	0	0	0	0	0	516	510	507	31	0	
13	0	0	0	0	0	515	510	504	31	0	
14	0	0	0	0	0	516	509	503	31	0	
15	0	0	0	0	0	513	509	509	32	0	
0	0	0	0	0	2	512	511	515	32	0	
1	0	0	0	0	0	514	508	521	32	0	
2	0	0	0	0	0	514	509	524	31	0	
3	0	0	0	0	0	513	510	523	31	0	
4	0	0	0	0	0	515	511	526	31	0	
5	0	0	0	0	0	515	511	523	32	0	
6	0	0	0	0	0	513	512	516	32	0	
7	0	0	0	0	0	511	512	511	32	0	
8	0	0	0	0	2	516	510	502	32	0	
9	0	0	0	0	0	515	511	500	31	0	
10	0	0	0	0	0	514	511	500	31	0	
11	0	0	0	0	0	512	508	500	32	0	
12	0	0	0	0	0	515	507	504	32	0	
13	0	0	0	0	0	512	508	509	32	0	
14	0	0	0	0	0	513	507	515	32	0	
15	0	0	0	0	0	512	508	519	32	0	
0	0	0	0	0	2	513	510	517	31	0	
1	0	0	0	0	0	516	512	518	31	0	
2	0	0	0	0	0	515	511	519	31	0	
3	0	0	0	0	0	514	510	518	32	0	
4	0	0	0	0	0	512	510	512	32	0	
5	0	0	0	0	0	513	508	511	32	0	
6	0	0	0	0	0	512	511	514	32	0	
7	0	0	0	0	0	513	511	512	32	0	
8	0	0	0	0	2	514	509	511	32	0	
9	0	0	0	0	0	515	508	513	32	0	
10	0	0	0	0	0	513	508	508	31	0	
11	0	0	0	0	0	515	511	510	31	0	
12	0	0	0	0	0	511	511	507	31	0	
13	0	0	0	0	0	512	512	507	31	0	
14	0	0	0	0	0	514	509	509	31	0	
15	0	0	0	0	0	512	511	506	31	0	
0	0	0	0	0	2	512	510	511	31	0	
1	0	0	0	0	0	515	511	513	31	0	
2	0	0	0	0	0	515	510	518	31	0	
3	0	0	0	0	0	516	508	522	31	0	
4	0	0	0	0	0	515	507	523	32	0	
5	0	0	0	0	0	515	509	523	32	0	
6	0	0	0	0	0	512	509	520	32	0	
7	0	0	0	0	0	513	509	517	32	0	
8	0	0	0	0	2	514	509	511	31	0	
9	0	0	0	0	0	515	510	507	31	0	
10	0	0	0	0	0	514	511	500	31	0	
11	0	0	0	0	0	512	509	496	32	0	
12	0	0	0	0	0	513	509	499	32	0	
13	0	0	0	0	0	513	509	499	32	0	
14	0	0	0	0	0	515	512	503	32	0	
15	0	0	0	0	0	512	511	507	32	0	
0	0	0	0	0	2	511	510	511	31	0	
1	0	0	0	0	0	515	511	518	32	0	
2	0	0	0	0	0	512	509	521	31	0	
3	0	0	0	0	0	516	508	519	32	0	
4	0	0	0	0	0	516	509	523	32	0	
5	0	0	0	0	0	515	510	519	32	0	
6	0	0	0	0	0	514	510	513	32	0	
7	0	0	0	0	0	512	510	509	31	0	
8	0	0	0	0	1	513	511	506	31	0	
9	0	0	0	0	0	512	511	504	31	0	
10	0	0	0	0	0	515	511	499	31	0	
11	0	0	0	0	0	513	510	498	32	0	
12	0	0	0	0	0	510	511	502	32	0	
13	0	0	0	0	0	511	510	504	32	0	
14	0	0	0	0	0	513	511	507	32	0	
15	0	0	0	0	0	514	511	510	32	0	
0	0	0	0	0	1	515	507	511	31	0	
1	0	0	0	0	0	515	505	509	32	0	
2	0	0	0	0	0	513	508	513	32	0	
3	0	0	0	0	0	514	510	516	32	0	
4	0	0	0	0	0	513	508	514	31	0	
5	0	0	0	0	0	514	509	516	31	0	
6	0	0	0	0	0	515	508	517	31	0	
7	0	0	0	0	0	513	508	509	32	0	
8	0	0	0	0	2	513	508	510	32	0	
9	0	0	0	0	0	512	509	508	32	0	
10	0	0	0	0	0	512	510	507	32	0	
11	0	0	0	0	0	511	512	507	32	0	
12	0	0	0	0	0	516	513	503	32	0	
13	0	0	0	0	0	516	508	503	31	0	
14	0	0	0	0	0	513	509	501	31	0	
15	0	0	0	0	0	515	511	503	31	0	
0	0	0	0	0	2	513	511	504	31	0	
1	0	0	0	0	0	514	508	507	31	0	
2	0	0	0	0	0	515	507	506	32	0	
3	0	0	0	0	0	516	507	511	31	0	
4	0	0	0	0	0	516	510	514	31	0	
5	0	0	0	0	0	516	508	514	32	0	
6	0	0	0	0	0	516	510	514	32	0	
7	0	0	0	0	0	515	510	515	32	0	
8	0	0	0	0	2	513	510	512	32	0	
9	0	0	0	0	0	514	511	513	32	0	
10	0	0	0	0	0	514	512	507	31	0	
11	0	0	0	0	0	512	510	500	32	0	
12	0	0	0	0	0	511	512	500	32	0	
13	0	0	0	0	0	515	508	499	32	0	
14	0	0	0	0	0	513	508	499	31	0	
15	0	0	0	0	0	513	507	500	32	0	
0	0	0	0	0	2	512	507	504	31	0	
1	0	0	0	0	0	512	510	503	31	0	
2	0	0	0	0	0	511	509	508	32	0	
3	0	0	0	0	0	511	508	508	31	0	
4	0	0	0	0	0	513	510	511	31	0	
5	0	0	0	0	0	515	510	515	31	0	
6	0	0	0	0	0	516	510	517	31	0	
7	0	0	0	0	0	513	511	516	32	0	
8	0	0	0	0	2	516	510	513	32	0	
9	0	0	0	0	0	513	510	509	32	0	
10	0	0	0	0	0	514	509	503	32	0	
11	0	0	0	0	0	514	512	503	31	0	
12	0	0	0	0	0	513	508	498	31	0	
13	0	0	0	0	0	512	512	495	32	0	
14	0	0	0	0	0	513	511	495	31	0	
15	0	0	0	0	0	515	510	497	32	0	
0	0	0	0	0	2	515	509	496	32	0	
1	0	0	0	0	0	513	508	497	32	0	
2	0	0	0	0	0	513	509	499	31	0	
3	0	0	0	0	0	512	510	503	32	0	
4	0	0	0	0	0	514	508	507	31	0	
5	0	0	0	0	0	515	508	514	31	0	
6	0	0	0	0	0	515	507	514	31	0	
7	0	0	0	0	0	515	507	513	32	0	
8	0	0	0	0	2	512	508	510	31	0	
9	0	0	0	0	0	513	510	511	32	0	
10	0	0	0	0	0	513	511	507	31	0	
11	0	0	0	0	0	515	510	507	32	0	
12	0	0	0	0	0	514	511	508	32	0	
13	0	0	0	0	0	513	512	505	32	0	
14	0	0	0	0	0	515	513	505	31	0	
15	0	0	0	0	0	516	514	505	31	0	
0	0	0	0	0	2	513	511	500	31	0	
1	0	0	0	0	0	514	510	504	31	0	
2	0	0	0	0	0	512	508	511	32	0	
3	0	0	0	0	0	514	506	506	32	0	
4	0	0	0	0	0	514	508	509	32	0	
5	0	0	0	0	0	512	507	515	31	0	
6	0	0	0	0	0	511	509	516	31	0	
7	0	0	0	0	0	512	508	519	32	0	
8	0	0	0	0	2	513	509	515	31	0	
9	0	0	0	0	0	514	508	512	31	0	
10	0	0	0	0	0	510	508	509	31	0	
11	0	0	0	0	0	513	509	508	32	0	
12	0	0	0	0	0	513	509	507	32	0	
13	0	0	0	0	0	515	509	502	32	0	
14	0	0	0	0	0	516	510	499	32	0	
15	0	0	0	0	0	515	512	496	32	0	
0	0	0	0	0	2	516	513	499	32	0	
1	0	0	0	0	0	515	511	504	32	0	
2	0	0	0	0	0	514	510	504	32	0	
3	0	0	0	0	0	515	512	507	32	0	
4	0	0	0	0	0	515	512	509	32	0	
5	0	0	0	0	0	515	510	512	31	0	
6	0	0	0	0	0	512	512	520	32	0	
7	0	0	0	0	0	514	510	520	31	0	
8	0	0	0	0	2	515	508	515	32	0	
9	0	0	0	0	0	515	508	515	31	0	
10	0	0	0	0	0	511	509	511	31	0	
11	0	0	0	0	0	513	513	510	31	0	
12	0	0	0	0	0	515	509	509	32	0	
13	0	0	0	0	0	515	509	507	32	0	
14	0	0	0	0	0	513	508	499	32	0	
15	0	0	0	0	0	514	509	500	32	0	
0	0	0	0	0	1	514	508	500	32	0	
1	0	0	0	0	0	514	509	500	32	0	
2	0	0	0	0	0	515	511	504	32	0	
3	0	0	0	0	0	513	511	503	32	0	
4	0	0	0	0	0	514	509	502	32	0	
5	0	0	0	0	0	514	509	506	32	0	
6	0	0	0	0	0	513	508	508	31	0	
7	0	0	0	0	0	512	508	514	31	0	
8	0	0	0	0	1	511	508	512	31	0	
9	0	0	0	0	0	512	513	515	31	0	
10	0	0	0	0	0	515	511	514	31	0	
11	0	0	0	0	0	512	507	511	31	0	
12	0	0	0	0	0	512	510	510	32	0	
13	0	0	0	0	0	514	512	507	32	0	
14	0	0	0	0	0	515	508	504	32	0	
15	0	0	0	0	0	515	508	503	32	0	
0	0	0	0	0	1	516	507	498	31	0	
1	0	0	0	0	0	516	510	506	32	0	
2	0	0	0	0	0	513	510	501	32	0	
3	0	0	0	0	0	515	510	499	31	0	
4	0	0	0	0	0	514	510	502	32	0	
5	0	0	0	0	0	513	510	504	32	0	
6	0	0	0	0	0	513	511	511	32	0	
7	0	0	0	0	0	514	511	515	31	0	
8	0	0	0	0	2	514	510	517	31	0	
9	0	0	0	0	0	513	510	516	32	0	
10	0	0	0	0	0	514	510	511	31	0	
11	0	0	0	0	0	515	509	511	32	0	
12	0	0	0	0	0	513	510	512	32	0	
13	0	0	0	0	0	513	510	512	32	0	
14	0	0	0	0	0	514	509	508	32	0	
15	0	0	0	0	0	513	509	504	32	0	
0	0	0	0	0	2	512	509	504	31	0	
1	0	0	0	0	0	513	510	496	31	0	
2	0	0	0	0	0	512	510	499	31	0	
3	0	0	0	0	0	513	508	502	31	0	
4	0	0	0	0	0	514	508	502	32	0	
5	0	0	0	0	0	515	509	506	31	0	
6	0	0	0	0	0	518	510	507	32	0	
7	0	0	0	0	0	515	508	512	32	0	
8	0	0	0	0	2	513	510	514	32	0	
9	0	0	0	0	0	513	509	516	32	0	
10	0	0	0	0	0	515	511	518	32	0	
11	0	0	0	0	0	514	510	514	31	0	
12	0	0	0	0	0	512	509	513	31	0	
13	0	0	0	0	0	515	513	510	32	0	
14	0	0	0	0	0	515	511	507	31	0	
15	0	0	0	0	0	515	508	506	32	0	
0	0	0	0	0	2	513	510	503	31	0	
1	0	0	0	0	0	514	510	500	31	0	
2	0	0	0	0	0	515	510	500	31	0	
3	0	0	0	0	0	514	507	499	31	0	
4	0	0	0	0	0	513	506	506	32	0	
5	0	0	0	0	0	514	507	508	31	0	
6	0	0	0	0	0	513	508	512	32	0	
7	0	0	0	0	0	513	511	512	32	0	
8	0	0	0	0	2	512	511	515	32	0	
9	0	0	0	0	0	511	512	520	32	0	
10	0	0	0	0	0	513	512	520	32	0	
11	0	0	0	0	0	516	511	517	32	0	
12	0	0	0	0	0	513	509	515	31	0	
13	0	0	0	0	0	515	511	512	32	0	
14	0	0	0	0	0	514	509	513	32	0	
15	0	0	0	0	0	514	510	508	32	0	
0	0	0	0	0	2	512	509	507	31	0	
1	0	0	0	0	0	515	509	507	32	0	
2	0	0	0	0	0	515	508	504	31	0	
3	0	0	0	0	0	514	512	503	31	0	
4	0	0	0	0	0	512	513	505	31	0	
5	0	0	0	0	0	512	511	502	31	0	
6	0	0	0	0	0	512	511	507	31	0	
7	0	0	0	0	0	513	510	507	31	0	
8	0	0	0	0	2	512	508	513	31	0	
9	0	0	0	0	0	513	509	519	31	0	
10	0	0	0	0	0	514	508	523	32	0	
11	0	0	0	0	0	514	509	522	32	0	
12	0	0	0	0	0	515	510	521	32	0	
13	0	0	0	0	0	513	510	516	32	0	
14	0	0	0	0	0	514	511	513	31	0	
15	0	0	0	0	0	515	510	513	32	0	
0	0	0	0	0	2	515	508	510	32	0	
1	0	0	0	0	0	515	511	503	32	0	
2	0	0	0	0	0	515	511	504	32	0	
3	0	0	0	0	0	513	509	500	32	0	
4	0	0	0	0	0	514	508	500	32	0	
5	0	0	0	0	0	513	510	502	32	0	
6	0	0	0	0	0	513	510	502	32	0	
7	0	0	0	0	0	515	510	507	31	0	
8	0	0	0	0	2	514	508	507	31	0	
9	0	0	0	0	0	515	510	509	31	0	
10	0	0	0	0	0	515	509	515	31	0	
11	0	0	0	0	0	512	508	519	32	0	
12	0	0	0	0	0	513	507	519	32	0	
13	0	0	0	0	0	515	510	520	32	0	
14	0	0	0	0	0	511	508	514	32	0	
15	0	0	0	0	0	514	510	513	32	0	
0	0	0	0	0	2	513	511	513	32	0	
1	0	0	0	0	0	513	511	508	31	0	
2	0	0	0	0	0	513	512	506	32	0	
3	0	0	0	0	0	513	513	502	32	0	
4	0	0	0	0	0	512	511	502	31	0	
5	0	0	0	0	0	512	510	503	31	0	
6	0	0	0	0	0	513	510	502	31	0	
7	0	0	0	0	0	515	512	506	31	0	
8	0	0	0	0	2	513	511	511	32	0	
9	0	0	0	0	0	513	511	513	31	0	
10	0	0	0	0	0	515	510	514	31	0	
11	0	0	0	0	0	517	510	519	31	0	
12	0	0	0	0	0	515	508	515	31	0	
13	0	0	0	0	0	516	511	517	32	0	
14	0	0	0	0	0	517	511	519	32	0	
15	0	0	0	0	0	516	508	514	32	0	
0	0	0	0	0	1	515	506	513	32	0	
1	0	0	0	0	0	513	508	508	32	0	
2	0	0	0	0	0	511	509	509	32	0	
3	0	0	0	0	0	512	507	503	32	0	
4	0	0	0	0	0	512	508	503	32	0	
5	0	0	0	0	0	513	510	505	32	0	
6	0	0	0	0	0	513	512	503	32	0	
7	0	0	0	0	0	511	510	505	31	0	
8	0	0	0	0	1	513	508	508	31	0	
9	0	0	0	0	0	510	510	509	31	0	
10	0	0	0	0	0	513	507	515	32	0	
11	0	0	0	0	0	515	510	515	31	0	
12	0	0	0	0	0	517	510	520	31	0	
13	0	0	0	0	0	516	510	519	31	0	
14	0	0	0	0	0	516	510	517	31	0	
15	0	0	0	0	0	514	510	516	31	0	
0	0	0	0	0	1	513	510	514	32	0	
1	0	0	0	0	0	515	510	511	32	0	
2	0	0	0	0	0	512	508	510	32	0	
3	0	0	0	0	0	511	508	505	32	0	
4	0	0	0	0	0	512	509	504	31	0	
5	0	0	0	0	0	514	509	502	32	0	
6	0	0	0	0	0	514	510	503	31	0	
7	0	0	0	0	0	514	510	503	31	0	
8	0	0	0	0	2	513	510	504	32	0	
9	0	0	0	0	0	513	509	501	31	0	
10	0	0	0	0	0	513	512	505	32	0	
11	0	0	0	0	0	513	509	513	32	0	
12	0	0	0	0	0	514	510	517	32	0	
13	0	0	0	0	0	515	508	519	32	0	
14	0	0	0	0	0	515	511	520	32	0	
15	0	0	0	0	0	515	508	520	32	0	
0	0	0	0	0	2	514	509	516	32	0	
1	0	0	0	0	0	514	511	516	31	0	
2	0	0	0	0	0	511	510	511	32	0	
3	0	0	0	0	0	511	511	509	32	0	
4	0	0	0	0	0	513	510	504	32	0	
5	0	0	0	0	0	513	510	501	31	0	
6	0	0	0	0	0	513	510	504	31	0	
7	0	0	0	0	0	515	510	505	32	0	
8	0	0	0	0	2	515	512	507	31	0	
9	0	0	0	0	0	517	511	506	31	0	
