# OpenSignals Text File Format. Version 1
# {"98:D3:71:FE:38:C0": {"position": 0, "device": "bitalino_rev", "device name": "98:D3:71:FE:38:C0", "device connection": "BTH98:D3:71:FE:38:C0", "sampling rate": 1000, "resolution": [4, 1, 1, 1, 1, 10, 10, 10, 10, 6, 6], "firmware version": 1282, "comments": "", "keywords": "", "mode": 0, "sync interval": 2, "date": "2026-6-5", "time": "12:44:21.255", "channels": [1, 2, 3, 4, 5, 6], "sensor": ["RAW", "RAW", "RAW", "RAW", "RAW", "RAW"], "label": ["A1", "A2", "A3", "A4", "A5", "A6"], "column": ["nSeq", "I1", "I2", "O1", "O2", "A1", "A2", "A3", "A4", "A5", "A6"], "special": [{}, {}, {}, {}, {}, {}], "digital IO": [0, 0, 1, 1]}}
# EndOfHeader
0	0	0	0	0	0	503	510	508	31	0	
1	0	0	0	0	0	505	512	508	31	0	
2	0	0	0	0	0	503	511	509	31	0	
3	0	0	0	0	0	504	513	510	31	0	
4	0	0	0	0	0	505	512	508	31	0	
5	0	0	0	0	0	505	512	511	31	0	
6	0	0	0	0	2	506	510	509	31	0	
7	0	0	0	0	0	507	511	508	31	0	
8	0	0	0	0	0	505	509	508	31	0	
9	0	0	0	0	0	506	510	508	31	0	
10	0	0	0	0	0	505	509	510	31	0	
11	0	0	0	0	0	504	512	509	32	0	
12	0	0	0	0	0	504	511	509	31	0	
13	0	0	0	0	0	504	515	510	31	0	
14	0	0	0	0	2	504	513	510	31	0	
15	0	0	0	0	0	506	516	509	31	0	
0	0	0	0	0	0	506	516	508	31	0	
1	0	0	0	0	0	507	516	509	31	0	
2	0	0	0	0	0	506	514	511	31	0	
3	0	0	0	0	0	505	513	508	31	0	
4	0	0	0	0	0	506	511	510	31	0	
5	0	0	0	0	0	506	510	509	31	0	
6	0	0	0	0	2	506	510	509	31	0	
7	0	0	0	0	0	504	510	509	31	0	
8	0	0	0	0	0	503	510	508	31	0	
9	0	0	0	0	0	504	512	509	31	0	
10	0	0	0	0	0	503	509	508	32	0	
11	0	0	0	0	0	503	512	509	31	0	
12	0	0	0	0	0	507	511	511	31	0	
13	0	0	0	0	0	508	512	508	31	0	
14	0	0	0	0	2	506	513	508	31	0	
15	0	0	0	0	0	506	517	509	31	0	
0	0	0	0	0	0	505	513	509	31	0	
1	0	0	0	0	0	503	515	510	31	0	
2	0	0	0	0	0	504	512	508	31	0	
3	0	0	0	0	0	505	512	510	31	0	
4	0	0	0	0	0	501	512	509	31	0	
5	0	0	0	0	0	504	513	509	31	0	
6	0	0	0	0	2	505	510	511	31	0	
7	0	0	0	0	0	504	510	509	31	0	
8	0	0	0	0	0	505	512	511	31	0	
9	0	0	0	0	0	504	514	509	31	0	
10	0	0	0	0	0	505	512	509	31	0	
11	0	0	0	0	0	504	514	509	32	0	
12	0	0	0	0	0	504	513	510	32	0	
13	0	0	0	0	0	506	512	510	31	0	
14	0	0	0	0	3	508	512	509	31	0	
15	0	0	0	0	0	511	512	511	31	0	
0	0	0	0	0	0	508	510	510	31	0	
1	0	0	0	0	0	504	508	510	31	0	
2	0	0	0	0	0	503	510	510	31	0	
3	0	0	0	0	0	502	509	508	31	0	
4	0	0	0	0	0	507	510	510	31	0	
5	0	0	0	0	0	509	513	510	31	0	
6	0	0	0	0	1	506	510	509	31	0	
7	0	0	0	0	0	505	509	509	31	0	
8	0	0	0	0	0	501	513	509	32	0	
9	0	0	0	0	0	503	515	508	31	0	
10	0	0	0	0	0	506	514	509	31	0	
11	0	0	0	0	0	506	511	508	31	0	
12	0	0	0	0	0	505	514	510	31	0	
13	0	0	0	0	0	505	512	510	31	0	
14	0	0	0	0	1	507	513	511	31	0	
15	0	0	0	0	0	506	514	510	31	0	
0	0	0	0	0	0	506	514	508	31	0	
1	0	0	0	0	0	504	515	510	31	0	
2	0	0	0	0	0	504	513	510	31	0	
3	0	0	0	0	0	504	513	509	31	0	
4	0	0	0	0	0	505	513	508	31	0	
5	0	0	0	0	0	502	512	508	31	0	
6	0	0	0	0	2	502	510	510	31	0	
7	0	0	0	0	0	504	512	510	32	0	
8	0	0	0	0	0	507	513	510	31	0	
9	0	0	0	0	0	505	512	509	31	0	
10	0	0	0	0	0	504	511	509	32	0	
11	0	0	0	0	0	506	510	509	32	0	
12	0	0	0	0	0	505	512	508	31	0	
13	0	0	0	0	0	502	511	509	31	0	
14	0	0	0	0	2	503	513	510	31	0	
15	0	0	0	0	0	506	514	508	31	0	
0	0	0	0	0	0	510	514	510	31	0	
1	0	0	0	0	0	508	512	509	31	0	
2	0	0	0	0	0	507	515	510	31	0	
3	0	0	0	0	0	504	512	510	31	0	
4	0	0	0	0	0	504	512	508	31	0	
5	0	0	0	0	0	505	513	508	31	0	
6	0	0	0	0	2	504	512	511	32	0	
7	0	0	0	0	0	506	511	508	32	0	
8	0	0	0	0	0	505	510	510	32	0	
9	0	0	0	0	0	505	511	508	32	0	
10	0	0	0	0	0	502	512	510	31	0	
11	0	0	0	0	0	502	513	508	31	0	
12	0	0	0	0	0	504	511	511	31	0	
13	0	0	0	0	0	504	511	509	31	0	
14	0	0	0	0	2	505	507	510	31	0	
15	0	0	0	0	0	504	505	511	31	0	
0	0	0	0	0	0	507	510	508	31	0	
1	0	0	0	0	0	506	511	511	31	0	
2	0	0	0	0	0	506	511	508	31	0	
3	0	0	0	0	0	504	511	509	31	0	
4	0	0	0	0	0	507	511	510	31	0	
5	0	0	0	0	0	506	513	508	31	0	
6	0	0	0	0	2	505	515	511	31	0	
7	0	0	0	0	0	506	515	510	31	0	
8	0	0	0	0	0	506	513	509	31	0	
9	0	0	0	0	0	506	515	509	31	0	
10	0	0	0	0	0	505	512	509	31	0	
11	0	0	0	0	0	508	511	509	31	0	
12	0	0	0	0	0	505	514	509	31	0	
13	0	0	0	0	0	507	514	510	31	0	
14	0	0	0	0	2	503	513	510	31	0	
15	0	0	0	0	0	505	516	509	31	0	
0	0	0	0	0	0	507	513	510	31	0	
1	0	0	0	0	0	504	512	510	31	0	
2	0	0	0	0	0	504	511	509	31	0	
3	0	0	0	0	0	506	508	509	31	0	
4	0	0	0	0	0	507	509	508	31	0	
5	0	0	0	0	0	502	510	509	31	0	
6	0	0	0	0	2	505	514	510	31	0	
7	0	0	0	0	0	503	514	508	31	0	
8	0	0	0	0	0	503	516	509	31	0	
9	0	0	0	0	0	504	513	509	31	0	
10	0	0	0	0	0	503	512	510	31	0	
11	0	0	0	0	0	504	511	510	31	0	
12	0	0	0	0	0	504	512	507	31	0	
13	0	0	0	0	0	508	513	508	31	0	
14	0	0	0	0	2	504	512	509	31	0	
15	0	0	0	0	0	505	512	510	31	0	
0	0	0	0	0	0	505	512	509	31	0	
1	0	0	0	0	0	504	515	508	31	0	
2	0	0	0	0	0	504	511	509	31	0	
3	0	0	0	0	0	502	511	509	31	0	
4	0	0	0	0	0	504	514	509	31	0	
5	0	0	0	0	0	507	514	511	31	0	
6	0	0	0	0	2	507	508	509	31	0	
7	0	0	0	0	0	505	509	509	31	0	
8	0	0	0	0	0	504	510	507	31	0	
9	0	0	0	0	0	505	513	510	31	0	
10	0	0	0	0	0	507	513	509	31	0	
11	0	0	0	0	0	507	515	510	32	0	
12	0	0	0	0	0	506	512	511	31	0	
13	0	0	0	0	0	505	513	508	31	0	
14	0	0	0	0	3	506	511	509	31	0	
15	0	0	0	0	0	506	511	509	31	0	
0	0	0	0	0	0	505	511	510	31	0	
1	0	0	0	0	0	504	513	508	31	0	
2	0	0	0	0	0	504	510	508	31	0	
3	0	0	0	0	0	502	512	511	31	0	
4	0	0	0	0	0	503	511	509	31	0	
5	0	0	0	0	0	504	515	508	31	0	
6	0	0	0	0	2	507	514	510	31	0	
7	0	0	0	0	0	505	511	508	31	0	
8	0	0	0	0	0	510	510	510	31	0	
9	0	0	0	0	0	508	513	509	31	0	
10	0	0	0	0	0	505	511	508	31	0	
11	0	0	0	0	0	508	511	511	31	0	
12	0	0	0	0	0	504	511	510	31	0	
13	0	0	0	0	0	505	511	509	31	0	
14	0	0	0	0	1	505	510	509	31	0	
15	0	0	0	0	0	504	510	509	31	0	
0	0	0	0	0	0	503	510	510	31	0	
1	0	0	0	0	0	506	512	509	31	0	
2	0	0	0	0	0	505	512	510	31	0	
3	0	0	0	0	0	503	513	510	31	0	
4	0	0	0	0	0	502	512	508	31	0	
5	0	0	0	0	0	504	515	510	31	0	
6	0	0	0	0	1	504	513	509	31	0	
7	0	0	0	0	0	504	508	510	31	0	
8	0	0	0	0	0	508	510	508	31	0	
9	0	0	0	0	0	505	509	508	31	0	
10	0	0	0	0	0	509	512	509	31	0	
11	0	0	0	0	0	506	514	508	31	0	
12	0	0	0	0	0	505	514	510	31	0	
13	0	0	0	0	0	504	516	510	31	0	
14	0	0	0	0	1	508	514	508	31	0	
15	0	0	0	0	0	505	513	512	31	0	
0	0	0	0	0	0	502	514	510	31	0	
1	0	0	0	0	0	503	513	510	31	0	
2	0	0	0	0	0	504	515	510	31	0	
3	0	0	0	0	0	504	511	508	31	0	
4	0	0	0	0	0	504	510	510	31	0	
5	0	0	0	0	0	504	510	508	32	0	
6	0	0	0	0	2	502	512	511	31	0	
7	0	0	0	0	0	504	511	509	31	0	
8	0	0	0	0	0	504	512	510	31	0	
9	0	0	0	0	0	504	510	510	31	0	
10	0	0	0	0	0	504	509	508	31	0	
11	0	0	0	0	0	508	512	509	31	0	
12	0	0	0	0	0	504	512	509	31	0	
13	0	0	0	0	0	506	513	507	31	0	
14	0	0	0	0	2	505	511	509	31	0	
15	0	0	0	0	0	503	513	509	31	0	
0	0	0	0	0	0	505	513	510	31	0	
1	0	0	0	0	0	504	516	510	31	0	
2	0	0	0	0	0	504	515	508	31	0	
3	0	0	0	0	0	505	514	508	31	0	
4	0	0	0	0	0	505	509	508	32	0	
5	0	0	0	0	0	508	512	512	31	0	
6	0	0	0	0	2	506	512	510	31	0	
7	0	0	0	0	0	505	512	509	31	0	
8	0	0	0	0	0	507	510	510	31	0	
9	0	0	0	0	0	506	511	508	31	0	
10	0	0	0	0	0	505	511	511	31	0	
11	0	0	0	0	0	505	510	509	31	0	
12	0	0	0	0	0	505	513	509	31	0	
13	0	0	0	0	0	505	512	508	31	0	
14	0	0	0	0	2	505	511	508	31	0	
15	0	0	0	0	0	507	510	510	31	0	
0	0	0	0	0	0	504	510	509	31	0	
1	0	0	0	0	0	503	513	509	31	0	
2	0	0	0	0	0	504	512	510	31	0	
3	0	0	0	0	0	505	513	508	31	0	
4	0	0	0	0	0	503	514	510	31	0	
5	0	0	0	0	0	504	512	510	31	0	
6	0	0	0	0	2	504	511	508	31	0	
7	0	0	0	0	0	504	513	511	31	0	
8	0	0	0	0	0	504	515	508	31	0	
9	0	0	0	0	0	505	513	508	31	0	
10	0	0	0	0	0	507	513	510	31	0	
11	0	0	0	0	0	508	511	508	31	0	
12	0	0	0	0	0	506	513	510	31	0	
13	0	0	0	0	0	504	510	509	31	0	
14	0	0	0	0	2	504	511	511	31	0	
15	0	0	0	0	0	507	512	510	31	0	
0	0	0	0	0	0	507	510	509	32	0	
1	0	0	0	0	0	507	512	510	31	0	
2	0	0	0	0	0	504	511	509	31	0	
3	0	0	0	0	0	502	512	510	31	0	
4	0	0	0	0	0	504	511	510	31	0	
5	0	0	0	0	0	505	510	508	31	0	
6	0	0	0	0	2	505	510	509	31	0	
7	0	0	0	0	0	503	512	509	31	0	
8	0	0	0	0	0	502	511	509	31	0	
9	0	0	0	0	0	504	511	511	31	0	
10	0	0	0	0	0	505	512	508	31	0	
11	0	0	0	0	0	504	511	509	31	0	
12	0	0	0	0	0	504	514	509	31	0	
13	0	0	0	0	0	506	512	509	31	0	
14	0	0	0	0	2	506	511	509	31	0	
15	0	0	0	0	0	506	514	509	31	0	
0	0	0	0	0	0	505	511	511	32	0	
1	0	0	0	0	0	507	511	510	31	0	
2	0	0	0	0	0	507	513	510	31	0	
3	0	0	0	0	0	508	515	508	31	0	
4	0	0	0	0	0	506	513	507	31	0	
5	0	0	0	0	0	505	515	510	31	0	
6	0	0	0	0	2	504	513	510	31	0	
7	0	0	0	0	0	503	513	509	31	0	
8	0	0	0	0	0	500	513	510	31	0	
9	0	0	0	0	0	504	512	508	31	0	
10	0	0	0	0	0	505	514	508	31	0	
11	0	0	0	0	0	505	514	509	31	0	
12	0	0	0	0	0	505	511	509	31	0	
13	0	0	0	0	0	507	511	509	31	0	
14	0	0	0	0	3	504	509	509	31	0	
15	0	0	0	0	0	504	508	509	32	0	
0	0	0	0	0	0	504	509	510	31	0	
1	0	0	0	0	0	504	507	509	31	0	
2	0	0	0	0	0	505	510	509	31	0	
3	0	0	0	0	0	506	509	508	31	0	
4	0	0	0	0	0	508	513	508	31	0	
5	0	0	0	0	0	508	514	511	31	0	
6	0	0	0	0	2	508	516	509	31	0	
7	0	0	0	0	0	505	515	509	31	0	
8	0	0	0	0	0	507	513	508	31	0	
9	0	0	0	0	0	505	513	511	31	0	
10	0	0	0	0	0	505	513	510	31	0	
11	0	0	0	0	0	504	513	509	32	0	
12	0	0	0	0	0	503	511	510	31	0	
13	0	0	0	0	0	504	513	508	31	0	
14	0	0	0	0	1	505	512	510	31	0	
15	0	0	0	0	0	502	512	510	31	0	
0	0	0	0	0	0	504	511	510	32	0	
1	0	0	0	0	0	505	512	510	31	0	
2	0	0	0	0	0	506	512	507	31	0	
3	0	0	0	0	0	507	513	509	31	0	
4	0	0	0	0	0	506	511	510	31	0	
5	0	0	0	0	0	508	510	508	31	0	
6	0	0	0	0	1	506	512	509	31	0	
7	0	0	0	0	0	506	511	508	31	0	
8	0	0	0	0	0	504	512	510	31	0	
9	0	0	0	0	0	504	512	511	31	0	
10	0	0	0	0	0	504	513	508	31	0	
11	0	0	0	0	0	506	511	510	31	0	
12	0	0	0	0	0	503	514	508	31	0	
13	0	0	0	0	0	503	510	511	31	0	
14	0	0	0	0	1	504	512	509	31	0	
15	0	0	0	0	0	505	511	510	31	0	
0	0	0	0	0	0	505	512	510	31	0	
1	0	0	0	0	0	504	511	508	31	0	
2	0	0	0	0	0	504	512	509	32	0	
3	0	0	0	0	0	506	512	509	31	0	
4	0	0	0	0	0	504	513	509	31	0	
5	0	0	0	0	0	503	513	508	31	0	
6	0	0	0	0	2	505	511	510	31	0	
7	0	0	0	0	0	504	513	509	31	0	
8	0	0	0	0	0	504	514	509	31	0	
9	0	0	0	0	0	505	513	509	31	0	
10	0	0	0	0	0	505	513	511	31	0	
11	0	0	0	0	0	507	514	509	31	0	
12	0	0	0	0	0	504	512	509	31	0	
13	0	0	0	0	0	504	511	510	31	0	
14	0	0	0	0	2	509	510	510	31	0	
15	0	0	0	0	0	505	514	510	31	0	
0	0	0	0	0	0	504	512	508	31	0	
1	0	0	0	0	0	503	513	509	31	0	
2	0	0	0	0	0	504	514	509	31	0	
3	0	0	0	0	0	507	508	509	32	0	
4	0	0	0	0	0	507	506	510	32	0	
5	0	0	0	0	0	506	505	508	32	0	
6	0	0	0	0	3	505	508	510	32	0	
7	0	0	0	0	0	501	511	510	31	0	
8	0	0	0	0	0	504	512	510	31	0	
9	0	0	0	0	0	506	514	509	31	0	
10	0	0	0	0	0	503	515	508	31	0	
11	0	0	0	0	0	504	518	508	31	0	
12	0	0	0	0	0	507	514	511	31	0	
13	0	0	0	0	0	507	513	509	31	0	
14	0	0	0	0	2	507	513	511	31	0	
15	0	0	0	0	0	505	509	508	31	0	
0	0	0	0	0	0	507	511	508	31	0	
1	0	0	0	0	0	507	509	510	31	0	
2	0	0	0	0	0	505	512	508	31	0	
3	0	0	0	0	0	503	510	509	31	0	
4	0	0	0	0	0	503	512	509	31	0	
5	0	0	0	0	0	504	512	509	31	0	
6	0	0	0	0	2	505	515	511	31	0	
7	0	0	0	0	0	505	511	509	31	0	
8	0	0	0	0	0	506	512	509	31	0	
9	0	0	0	0	0	504	510	508	31	0	
10	0	0	0	0	0	504	510	509	31	0	
11	0	0	0	0	0	507	513	512	31	0	
12	0	0	0	0	0	508	515	508	31	0	
13	0	0	0	0	0	504	515	510	31	0	
14	0	0	0	0	3	507	515	509	31	0	
15	0	0	0	0	0	505	515	510	31	0	
0	0	0	0	0	0	504	513	508	31	0	
1	0	0	0	0	0	506	511	510	31	0	
2	0	0	0	0	0	506	510	509	31	0	
3	0	0	0	0	0	504	510	508	31	0	
4	0	0	0	0	0	504	512	511	31	0	
5	0	0	0	0	0	501	511	509	32	0	
6	0	0	0	0	2	503	511	509	31	0	
7	0	0	0	0	0	506	511	510	31	0	
8	0	0	0	0	0	504	512	508	31	0	
9	0	0	0	0	0	505	511	510	31	0	
10	0	0	0	0	0	506	511	510	31	0	
11	0	0	0	0	0	504	511	510	31	0	
12	0	0	0	0	0	505	512	510	31	0	
13	0	0	0	0	0	506	511	510	31	0	
14	0	0	0	0	2	505	511	510	31	0	
15	0	0	0	0	0	506	511	508	31	0	
0	0	0	0	0	0	507	512	510	31	0	
1	0	0	0	0	0	508	513	510	31	0	
2	0	0	0	0	0	507	513	508	31	0	
3	0	0	0	0	0	508	511	509	31	0	
4	0	0	0	0	0	506	511	509	31	0	
5	0	0	0	0	0	503	512	510	31	0	
6	0	0	0	0	2	504	512	509	31	0	
7	0	0	0	0	0	505	513	508	31	0	
8	0	0	0	0	0	504	511	510	31	0	
9	0	0	0	0	0	504	511	509	31	0	
10	0	0	0	0	0	504	509	508	31	0	
11	0	0	0	0	0	504	509	509	31	0	
12	0	0	0	0	0	504	511	508	31	0	
13	0	0	0	0	0	504	513	508	31	0	
14	0	0	0	0	2	504	511	510	31	0	
15	0	0	0	0	0	505	513	508	31	0	
0	0	0	0	0	0	506	514	509	31	0	
1	0	0	0	0	0	505	513	508	31	0	
2	0	0	0	0	0	505	513	510	31	0	
3	0	0	0	0	0	508	510	511	31	0	
4	0	0	0	0	0	506	511	508	32	0	
5	0	0	0	0	0	503	511	509	31	0	
6	0	0	0	0	1	503	512	509	31	0	
7	0	0	0	0	0	502	511	509	31	0	
8	0	0	0	0	0	505	512	513	31	0	
9	0	0	0	0	0	504	512	509	31	0	
10	0	0	0	0	0	505	512	509	31	0	
11	0	0	0	0	0	505	513	508	31	0	
12	0	0	0	0	0	505	515	510	32	0	
13	0	0	0	0	0	505	513	509	31	0	
14	0	0	0	0	1	506	513	511	31	0	
15	0	0	0	0	0	504	513	509	31	0	
0	0	0	0	0	0	505	512	508	31	0	
1	0	0	0	0	0	503	510	511	31	0	
2	0	0	0	0	0	503	507	509	31	0	
3	0	0	0	0	0	505	508	510	31	0	
4	0	0	0	0	0	502	508	509	31	0	
5	0	0	0	0	0	503	510	509	31	0	
6	0	0	0	0	1	508	509	510	31	0	
7	0	0	0	0	0	507	511	508	31	0	
8	0	0	0	0	0	504	518	510	31	0	
9	0	0	0	0	0	505	518	511	31	0	
10	0	0	0	0	0	505	513	509	31	0	
11	0	0	0	0	0	507	515	510	31	0	
12	0	0	0	0	0	506	512	508	31	0	
13	0	0	0	0	0	506	513	508	31	0	
14	0	0	0	0	2	505	515	510	31	0	
15	0	0	0	0	0	508	514	510	31	0	
0	0	0	0	0	0	504	512	509	31	0	
1	0	0	0	0	0	506	514	512	31	0	
2	0	0	0	0	0	506	514	509	31	0	
3	0	0	0	0	0	505	514	509	32	0	
4	0	0	0	0	0	504	511	508	31	0	
5	0	0	0	0	0	504	511	511	31	0	
6	0	0	0	0	3	507	510	510	31	0	
7	0	0	0	0	0	506	510	509	31	0	
8	0	0	0	0	0	504	508	509	31	0	
9	0	0	0	0	0	507	511	508	31	0	
10	0	0	0	0	0	504	513	510	31	0	
11	0	0	0	0	0	505	513	508	31	0	
12	0	0	0	0	0	505	511	510	31	0	
13	0	0	0	0	0	505	511	510	31	0	
14	0	0	0	0	2	505	512	508	31	0	
15	0	0	0	0	0	505	513	510	31	0	
0	0	0	0	0	0	503	513	508	31	0	
1	0	0	0	0	0	500	512	510	31	0	
2	0	0	0	0	0	501	512	509	31	0	
3	0	0	0	0	0	504	513	507	31	0	
4	0	0	0	0	0	505	511	511	31	0	
5	0	0	0	0	0	507	511	509	31	0	
6	0	0	0	0	2	507	510	510	31	0	
7	0	0	0	0	0	504	509	509	31	0	
8	0	0	0	0	0	502	507	509	31	0	
9	0	0	0	0	0	504	510	508	32	0	
10	0	0	0	0	0	505	512	511	32	0	
11	0	0	0	0	0	502	511	510	31	0	
12	0	0	0	0	0	505	515	509	31	0	
13	0	0	0	0	0	507	513	509	31	0	
14	0	0	0	0	2	510	511	510	31	0	
15	0	0	0	0	0	505	513	508	31	0	
0	0	0	0	0	0	506	514	510	31	0	
1	0	0	0	0	0	508	513	509	31	0	
2	0	0	0	0	0	506	512	508	31	0	
3	0	0	0	0	0	507	512	508	31	0	
4	0	0	0	0	0	506	513	509	31	0	
5	0	0	0	0	0	504	511	510	31	0	
6	0	0	0	0	2	507	511	510	31	0	
7	0	0	0	0	0	503	511	508	31	0	
8	0	0	0	0	0	503	511	510	32	0	
9	0	0	0	0	0	504	512	509	31	0	
10	0	0	0	0	0	502	510	510	31	0	
11	0	0	0	0	0	503	512	511	31	0	
12	0	0	0	0	0	503	512	508	31	0	
13	0	0	0	0	0	504	513	510	31	0	
14	0	0	0	0	2	504	511	510	31	0	
15	0	0	0	0	0	506	513	509	31	0	
0	0	0	0	0	0	507	511	509	31	0	
1	0	0	0	0	0	507	511	507	31	0	
2	0	0	0	0	0	508	513	509	31	0	
3	0	0	0	0	0	506	514	510	31	0	
4	0	0	0	0	0	507	514	510	31	0	
5	0	0	0	0	0	505	512	511	31	0	
6	0	0	0	0	3	506	512	508	31	0	
7	0	0	0	0	0	507	514	510	31	0	
8	0	0	0	0	0	509	514	509	31	0	
9	0	0	0	0	0	508	513	508	31	0	
10	0	0	0	0	0	505	511	509	32	0	
11	0	0	0	0	0	504	509	508	32	0	
12	0	0	0	0	0	504	513	508	31	0	
13	0	0	0	0	0	502	515	511	31	0	
14	0	0	0	0	2	503	514	509	31	0	
15	0	0	0	0	0	503	512	509	31	0	
0	0	0	0	0	0	507	511	508	31	0	
1	0	0	0	0	0	504	512	509	31	0	
2	0	0	0	0	0	504	510	510	32	0	
3	0	0	0	0	0	505	508	510	32	0	
4	0	0	0	0	0	507	507	508	31	0	
5	0	0	0	0	0	507	508	508	31	0	
6	0	0	0	0	2	508	510	511	31	0	
7	0	0	0	0	0	506	511	509	31	0	
8	0	0	0	0	0	505	511	510	31	0	
9	0	0	0	0	0	503	509	510	31	0	
10	0	0	0	0	0	502	509	509	31	0	
11	0	0	0	0	0	503	508	511	31	0	
12	0	0	0	0	0	502	510	508	31	0	
13	0	0	0	0	0	505	515	508	31	0	
14	0	0	0	0	2	506	518	510	31	0	
15	0	0	0	0	0	505	513	508	31	0	
0	0	0	0	0	0	508	512	511	31	0	
1	0	0	0	0	0	507	516	507	31	0	
2	0	0	0	0	0	506	514	510	31	0	
3	0	0	0	0	0	505	511	510	32	0	
4	0	0	0	0	0	504	510	508	32	0	
5	0	0	0	0	0	504	511	510	31	0	
6	0	0	0	0	1	504	513	509	31	0	
7	0	0	0	0	0	504	513	508	31	0	
8	0	0	0	0	0	505	512	510	31	0	
9	0	0	0	0	0	505	514	508	31	0	
10	0	0	0	0	0	506	513	511	31	0	
11	0	0	0	0	0	505	515	510	31	0	
12	0	0	0	0	0	507	513	509	31	0	
13	0	0	0	0	0	510	516	508	31	0	
14	0	0	0	0	1	507	513	508	31	0	
15	0	0	0	0	0	505	513	511	32	0	
0	0	0	0	0	0	504	513	510	31	0	
1	0	0	0	0	0	504	512	511	31	0	
2	0	0	0	0	0	507	511	510	31	0	
3	0	0	0	0	0	506	509	509	31	0	
4	0	0	0	0	0	504	507	510	31	0	
5	0	0	0	0	0	503	509	509	31	0	
6	0	0	0	0	1	503	512	509	31	0	
7	0	0	0	0	0	503	515	510	31	0	
8	0	0	0	0	0	504	514	508	31	0	
9	0	0	0	0	0	504	515	509	32	0	
10	0	0	0	0	0	505	511	510	32	0	
11	0	0	0	0	0	505	511	510	31	0	
12	0	0	0	0	0	506	510	510	32	0	
13	0	0	0	0	0	505	509	507	31	0	
14	0	0	0	0	2	507	511	510	31	0	
15	0	0	0	0	0	504	514	509	31	0	
0	0	0	0	0	0	505	515	509	31	0	
1	0	0	0	0	0	507	515	509	31	0	
2	0	0	0	0	0	506	510	508	32	0	
3	0	0	0	0	0	509	510	510	31	0	
4	0	0	0	0	0	507	513	509	31	0	
5	0	0	0	0	0	507	513	508	31	0	
6	0	0	0	0	2	503	512	509	31	0	
7	0	0	0	0	0	503	513	509	31	0	
8	0	0	0	0	0	505	512	508	31	0	
9	0	0	0	0	0	505	509	511	31	0	
10	0	0	0	0	0	504	511	510	31	0	
11	0	0	0	0	0	505	510	510	31	0	
12	0	0	0	0	0	506	511	509	31	0	
13	0	0	0	0	0	503	511	510	32	0	
14	0	0	0	0	3	503	510	509	32	0	
15	0	0	0	0	0	503	514	510	31	0	
0	0	0	0	0	0	504	515	508	31	0	
1	0	0	0	0	0	504	514	509	31	0	
2	0	0	0	0	0	504	515	509	31	0	
3	0	0	0	0	0	505	516	508	31	0	
4	0	0	0	0	0	507	513	508	31	0	
5	0	0	0	0	0	504	511	509	31	0	
6	0	0	0	0	3	505	510	508	31	0	
7	0	0	0	0	0	506	511	509	32	0	
8	0	0	0	0	0	507	510	511	31	0	
9	0	0	0	0	0	504	510	510	31	0	
10	0	0	0	0	0	503	511	510	31	0	
11	0	0	0	0	0	504	509	509	31	0	
12	0	0	0	0	0	506	511	510	31	0	
13	0	0	0	0	0	505	512	509	32	0	
14	0	0	0	0	2	505	515	510	31	0	
15	0	0	0	0	0	506	515	510	31	0	
0	0	0	0	0	0	507	513	508	31	0	
1	0	0	0	0	0	506	514	510	31	0	
2	0	0	0	0	0	507	514	509	31	0	
3	0	0	0	0	0	505	511	508	31	0	
4	0	0	0	0	0	507	511	509	31	0	
5	0	0	0	0	0	505	514	509	31	0	
6	0	0	0	0	2	504	515	510	31	0	
7	0	0	0	0	0	503	515	509	31	0	
8	0	0	0	0	0	504	507	509	32	0	
9	0	0	0	0	0	503	509	510	32	0	
10	0	0	0	0	0	505	511	508	31	0	
11	0	0	0	0	0	504	513	508	31	0	
12	0	0	0	0	0	506	513	510	31	0	
13	0	0	0	0	0	508	510	510	31	0	
14	0	0	0	0	2	506	510	510	31	0	
15	0	0	0	0	0	508	508	508	31	0	
0	0	0	0	0	0	506	508	510	31	0	
1	0	0	0	0	0	504	511	509	31	0	
2	0	0	0	0	0	502	513	510	31	0	
3	0	0	0	0	0	501	512	510	31	0	
4	0	0	0	0	0	503	511	509	31	0	
5	0	0	0	0	0	505	512	510	31	0	
6	0	0	0	0	3	505	514	508	31	0	
7	0	0	0	0	0	508	514	510	31	0	
8	0	0	0	0	0	508	513	509	31	0	
9	0	0	0	0	0	510	513	508	31	0	
10	0	0	0	0	0	508	513	508	31	0	
11	0	0	0	0	0	505	513	508	31	0	
12	0	0	0	0	0	500	512	509	32	0	
13	0	0	0	0	0	499	516	509	31	0	
14	0	0	0	0	2	503	515	511	31	0	
15	0	0	0	0	0	504	513	511	31	0	
0	0	0	0	0	0	504	511	509	32	0	
1	0	0	0	0	0	504	508	508	32	0	
2	0	0	0	0	0	505	510	510	31	0	
3	0	0	0	0	0	508	512	508	31	0	
4	0	0	0	0	0	508	511	510	31	0	
5	0	0	0	0	0	503	510	508	31	0	
6	0	0	0	0	2	503	513	509	31	0	
7	0	0	0	0	0	505	509	508	31	0	
8	0	0	0	0	0	508	511	510	31	0	
9	0	0	0	0	0	507	511	510	31	0	
10	0	0	0	0	0	508	512	510	31	0	
11	0	0	0	0	0	508	511	508	31	0	
12	0	0	0	0	0	507	512	509	32	0	
13	0	0	0	0	0	504	512	509	31	0	
14	0	0	0	0	2	508	512	511	32	0	
15	0	0	0	0	0	506	513	509	31	0	
0	0	0	0	0	0	505	513	509	31	0	
1	0	0	0	0	0	505	513	511	31	0	
2	0	0	0	0	0	505	513	509	31	0	
3	0	0	0	0	0	503	513	510	32	0	
4	0	0	0	0	0	501	514	508	31	0	
5	0	0	0	0	0	504	511	508	31	0	
6	0	0	0	0	1	505	510	510	31	0	
7	0	0	0	0	0	504	513	508	31	0	
8	0	0	0	0	0	505	511	510	31	0	
9	0	0	0	0	0	506	515	510	31	0	
10	0	0	0	0	0	509	515	509	31	0	
11	0	0	0	0	0	507	510	509	32	0	
12	0	0	0	0	0	506	510	508	31	0	
13	0	0	0	0	0	505	515	508	31	0	
14	0	0	0	0	1	504	511	510	31	0	
15	0	0	0	0	0	505	516	510	31	0	
0	0	0	0	0	0	504	517	510	31	0	
1	0	0	0	0	0	503	515	508	31	0	
2	0	0	0	0	0	502	512	510	31	0	
3	0	0	0	0	0	504	511	508	31	0	
4	0	0	0	0	0	505	509	509	31	0	
5	0	0	0	0	0	505	509	511	31	0	
6	0	0	0	0	1	504	512	508	31	0	
7	0	0	0	0	0	506	512	510	32	0	
8	0	0	0	0	0	505	511	508	32	0	
9	0	0	0	0	0	504	512	510	31	0	
10	0	0	0	0	0	504	511	511	31	0	
11	0	0	0	0	0	506	508	509	31	0	
12	0	0	0	0	0	508	510	509	31	0	
13	0	0	0	0	0	509	507	508	32	0	
14	0	0	0	0	2	508	512	510	31	0	
15	0	0	0	0	0	504	514	510	31	0	
0	0	0	0	0	0	504	513	508	31	0	
1	0	0	0	0	0	503	512	509	31	0	
2	0	0	0	0	0	506	511	511	31	0	
3	0	0	0	0	0	507	511	509	31	0	
4	0	0	0	0	0	503	513	508	31	0	
5	0	0	0	0	0	504	514	508	31	0	
6	0	0	0	0	2	505	513	510	32	0	
7	0	0	0	0	0	505	512	510	32	0	
8	0	0	0	0	0	504	512	509	32	0	
9	0	0	0	0	0	505	511	509	32	0	
10	0	0	0	0	0	505	512	508	31	0	
11	0	0	0	0	0	505	510	509	31	0	
12	0	0	0	0	0	503	510	509	31	0	
13	0	0	0	0	0	503	513	509	31	0	
14	0	0	0	0	3	503	513	509	32	0	
15	0	0	0	0	0	507	512	509	31	0	
0	0	0	0	0	0	505	512	510	31	0	
1	0	0	0	0	0	504	513	509	31	0	
2	0	0	0	0	0	504	513	510	31	0	
3	0	0	0	0	0	505	515	510	31	0	
4	0	0	0	0	0	505	515	508	31	0	
5	0	0	0	0	0	505	512	511	31	0	
6	0	0	0	0	3	508	511	509	31	0	
7	0	0	0	0	0	504	509	509	32	0	
8	0	0	0	0	0	505	508	509	31	0	
9	0	0	0	0	0	508	511	508	32	0	
10	0	0	0	0	0	507	512	510	31	0	
11	0	0	0	0	0	505	515	509	31	0	
12	0	0	0	0	0	508	516	508	31	0	
13	0	0	0	0	0	505	514	509	31	0	
14	0	0	0	0	2	504	513	508	31	0	
15	0	0	0	0	0	502	512	508	31	0	
0	0	0	0	0	0	502	512	511	31	0	
1	0	0	0	0	0	503	509	509	32	0	
2	0	0	0	0	0	504	510	510	32	0	
3	0	0	0	0	0	504	511	509	32	0	
4	0	0	0	0	0	506	511	511	32	0	
5	0	0	0	0	0	505	510	508	32	0	
6	0	0	0	0	2	503	511	509	31	0	
7	0	0	0	0	0	503	514	510	31	0	
8	0	0	0	0	0	504	512	509	31	0	
9	0	0	0	0	0	505	511	508	31	0	
10	0	0	0	0	0	504	510	511	32	0	
11	0	0	0	0	0	503	513	510	31	0	
12	0	0	0	0	0	503	513	511	31	0	
13	0	0	0	0	0	504	511	510	31	0	
14	0	0	0	0	2	509	512	510	31	0	
15	0	0	0	0	0	511	512	508	31	0	
0	0	0	0	0	0	511	513	510	31	0	
1	0	0	0	0	0	509	512	510	31	0	
2	0	0	0	0	0	507	511	508	31	0	
3	0	0	0	0	0	504	511	510	31	0	
4	0	0	0	0	0	504	514	509	31	0	
5	0	0	0	0	0	503	513	510	31	0	
6	0	0	0	0	2	504	510	510	31	0	
7	0	0	0	0	0	504	510	508	31	0	
8	0	0	0	0	0	505	511	509	31	0	
9	0	0	0	0	0	505	510	510	31	0	
10	0	0	0	0	0	504	515	510	32	0	
11	0	0	0	0	0	506	515	510	31	0	
12	0	0	0	0	0	505	515	508	31	0	
13	0	0	0	0	0	506	513	508	31	0	
14	0	0	0	0	2	508	513	510	31	0	
15	0	0	0	0	0	507	510	509	31	0	
0	0	0	0	0	0	507	511	509	31	0	
1	0	0	0	0	0	504	511	510	31	0	
2	0	0	0	0	0	502	511	510	31	0	
3	0	0	0	0	0	502	513	509	32	0	
4	0	0	0	0	0	504	516	510	32	0	
5	0	0	0	0	0	505	516	510	31	0	
6	0	0	0	0	3	508	516	508	31	0	
7	0	0	0	0	0	508	510	510	31	0	
8	0	0	0	0	0	507	510	509	31	0	
9	0	0	0	0	0	505	510	509	31	0	
10	0	0	0	0	0	506	511	510	31	0	
11	0	0	0	0	0	505	511	508	32	0	
12	0	0	0	0	0	504	511	508	32	0	
13	0	0	0	0	0	504	510	510	31	0	
14	0	0	0	0	1	503	511	510	31	0	
15	0	0	0	0	0	503	511	510	31	0	
0	0	0	0	0	0	504	511	509	32	0	
1	0	0	0	0	0	505	513	510	32	0	
2	0	0	0	0	0	504	514	508	32	0	
3	0	0	0	0	0	505	514	509	31	0	
4	0	0	0	0	0	505	512	509	31	0	
5	0	0	0	0	0	504	509	508	31	0	
6	0	0	0	0	1	505	512	509	31	0	
7	0	0	0	0	0	504	511	508	31	0	
8	0	0	0	0	0	505	512	510	31	0	
9	0	0	0	0	0	507	514	510	31	0	
10	0	0	0	0	0	508	516	508	31	0	
11	0	0	0	0	0	507	517	510	31	0	
12	0	0	0	0	0	507	514	508	31	0	
13	0	0	0	0	0	507	509	510	31	0	
14	0	0	0	0	1	507	513	510	31	0	
15	0	0	0	0	0	507	511	510	32	0	
0	0	0	0	0	0	505	508	511	32	0	
1	0	0	0	0	0	505	508	509	32	0	
2	0	0	0	0	0	507	510	510	32	0	
3	0	0	0	0	0	507	509	510	32	0	
4	0	0	0	0	0	506	510	508	31	0	
5	0	0	0	0	0	504	515	510	31	0	
6	0	0	0	0	3	505	512	508	31	0	
7	0	0	0	0	0	505	513	509	31	0	
8	0	0	0	0	0	505	512	509	31	0	
9	0	0	0	0	0	503	511	510	31	0	
10	0	0	0	0	0	503	512	510	31	0	
11	0	0	0	0	0	499	510	509	31	0	
12	0	0	0	0	0	500	512	509	32	0	
13	0	0	0	0	0	504	512	510	31	0	
14	0	0	0	0	3	502	513	509	32	0	
15	0	0	0	0	0	502	512	508	31	0	
0	0	0	0	0	0	505	514	510	31	0	
1	0	0	0	0	0	506	514	508	31	0	
2	0	0	0	0	0	505	515	509	31	0	
3	0	0	0	0	0	508	515	508	31	0	
4	0	0	0	0	0	507	514	509	31	0	
5	0	0	0	0	0	508	512	509	31	0	
6	0	0	0	0	2	507	511	509	31	0	
7	0	0	0	0	0	507	511	509	31	0	
8	0	0	0	0	0	506	509	510	32	0	
9	0	0	0	0	0	508	513	510	32	0	
10	0	0	0	0	0	505	508	510	32	0	
11	0	0	0	0	0	504	512	508	32	0	
12	0	0	0	0	0	503	512	509	31	0	
13	0	0	0	0	0	504	514	509	31	0	
14	0	0	0	0	2	506	513	511	31	0	
15	0	0	0	0	0	505	514	508	31	0	
0	0	0	0	0	0	507	513	510	31	0	
1	0	0	0	0	0	507	515	509	31	0	
2	0	0	0	0	0	505	513	508	31	0	
3	0	0	0	0	0	506	515	511	31	0	
4	0	0	0	0	0	507	512	509	31	0	
5	0	0	0	0	0	510	512	508	31	0	
6	0	0	0	0	2	506	510	509	31	0	
7	0	0	0	0	0	500	508	510	31	0	
8	0	0	0	0	0	499	510	510	31	0	
9	0	0	0	0	0	500	510	509	31	0	
10	0	0	0	0	0	505	508	509	32	0	
11	0	0	0	0	0	505	509	509	32	0	
12	0	0	0	0	0	507	513	509	31	0	
13	0	0	0	0	0	509	513	510	31	0	
14	0	0	0	0	3	507	514	510	31	0	
15	0	0	0	0	0	507	513	510	31	0	
0	0	0	0	0	0	504	515	509	32	0	
1	0	0	0	0	0	503	514	509	31	0	
2	0	0	0	0	0	504	515	511	31	0	
3	0	0	0	0	0	503	512	510	31	0	
4	0	0	0	0	0	505	512	509	31	0	
5	0	0	0	0	0	505	510	510	31	0	
6	0	0	0	0	2	505	510	509	31	0	
7	0	0	0	0	0	507	509	510	31	0	
8	0	0	0	0	0	506	508	507	31	0	
9	0	0	0	0	0	505	507	510	32	0	
10	0	0	0	0	0	504	510	509	31	0	
11	0	0	0	0	0	503	512	508	31	0	
12	0	0	0	0	0	504	508	510	31	0	
13	0	0	0	0	0	504	508	510	31	0	
14	0	0	0	0	2	504	512	509	31	0	
15	0	0	0	0	0	505	510	510	31	0	
0	0	0	0	0	0	507	513	508	31	0	
1	0	0	0	0	0	506	516	509	31	0	
2	0	0	0	0	0	505	519	509	32	0	
3	0	0	0	0	0	505	516	510	31	0	
4	0	0	0	0	0	505	515	509	31	0	
5	0	0	0	0	0	505	513	508	31	0	
6	0	0	0	0	2	506	514	509	31	0	
7	0	0	0	0	0	505	515	509	32	0	
8	0	0	0	0	0	505	517	510	32	0	
9	0	0	0	0	0	507	515	508	31	0	
10	0	0	0	0	0	507	513	508	31	0	
11	0	0	0	0	0	506	512	509	31	0	
12	0	0	0	0	0	506	510	510	31	0	
13	0	0	0	0	0	504	511	510	31	0	
14	0	0	0	0	2	505	509	510	31	0	
15	0	0	0	0	0	506	512	509	32	0	
0	0	0	0	0	0	502	513	509	31	0	
1	0	0	0	0	0	501	510	509	31	0	
2	0	0	0	0	0	502	508	510	31	0	
3	0	0	0	0	0	505	508	510	31	0	
4	0	0	0	0	0	506	508	509	31	0	
5	0	0	0	0	0	505	509	510	31	0	
6	0	0	0	0	3	504	512	509	31	0	
7	0	0	0	0	0	503	512	509	31	0	
8	0	0	0	0	0	505	512	510	31	0	
9	0	0	0	0	0	504	512	509	31	0	
10	0	0	0	0	0	504	510	511	31	0	
11	0	0	0	0	0	506	513	508	31	0	
12	0	0	0	0	0	507	514	510	31	0	
13	0	0	0	0	0	505	512	509	31	0	
14	0	0	0	0	1	506	509	509	31	0	
15	0	0	0	0	0	505	510	510	32	0	
0	0	0	0	0	0	506	512	508	32	0	
1	0	0	0	0	0	508	515	510	32	0	
2	0	0	0	0	0	506	515	510	32	0	
3	0	0	0	0	0	504	515	508	32	0	
4	0	0	0	0	0	504	515	510	32	0	
5	0	0	0	0	0	504	512	508	31	0	
6	0	0	0	0	1	505	508	509	31	0	
7	0	0	0	0	0	503	509	509	32	0	
8	0	0	0	0	0	504	511	508	32	0	
9	0	0	0	0	0	505	511	511	31	0	
10	0	0	0	0	0	505	510	507	31	0	
11	0	0	0	0	0	505	513	511	31	0	
12	0	0	0	0	0	508	511	510	31	0	
13	0	0	0	0	0	502	512	508	31	0	
14	0	0	0	0	1	504	515	511	31	0	
15	0	0	0	0	0	506	517	508	31	0	
0	0	0	0	0	0	505	516	509	31	0	
1	0	0	0	0	0	508	517	509	31	0	
2	0	0	0	0	0	506	516	508	31	0	
3	0	0	0	0	0	508	513	511	31	0	
4	0	0	0	0	0	505	510	508	32	0	
5	0	0	0	0	0	501	510	509	32	0	
6	0	0	0	0	2	503	509	509	32	0	
7	0	0	0	0	0	504	510	509	31	0	
8	0	0	0	0	0	505	509	510	31	0	
9	0	0	0	0	0	507	508	508	31	0	
10	0	0	0	0	0	506	510	510	31	0	
11	0	0	0	0	0	504	511	511	31	0	
12	0	0	0	0	0	504	510	509	31	0	
13	0	0	0	0	0	506	511	511	31	0	
14	0	0	0	0	2	506	514	508	31	0	
15	0	0	0	0	0	505	514	509	31	0	
0	0	0	0	0	0	505	513	511	32	0	
1	0	0	0	0	0	506	513	509	32	0	
2	0	0	0	0	0	505	513	509	32	0	
3	0	0	0	0	0	505	513	509	32	0	
4	0	0	0	0	0	504	511	510	31	0	
5	0	0	0	0	0	505	513	510	31	0	
6	0	0	0	0	2	505	509	510	31	0	
7	0	0	0	0	0	506	512	510	31	0	
8	0	0	0	0	0	505	512	508	31	0	
9	0	0	0	0	0	505	513	510	31	0	
10	0	0	0	0	0	504	515	509	31	0	
11	0	0	0	0	0	502	515	508	31	0	
12	0	0	0	0	0	504	511	509	31	0	
13	0	0	0	0	0	509	510	510	31	0	
14	0	0	0	0	2	508	512	510	31	0	
15	0	0	0	0	0	507	511	511	31	0	
0	0	0	0	0	0	506	512	508	31	0	
1	0	0	0	0	0	502	511	509	32	0	
2	0	0	0	0	0	502	511	511	32	0	
3	0	0	0	0	0	500	512	509	31	0	
4	0	0	0	0	0	504	515	510	31	0	
5	0	0	0	0	0	504	515	509	31	0	
6	0	0	0	0	3	504	514	508	31	0	
7	0	0	0	0	0	504	512	511	31	0	
8	0	0	0	0	0	503	511	508	31	0	
9	0	0	0	0	0	504	509	509	32	0	
10	0	0	0	0	0	506	508	508	31	0	
11	0	0	0	0	0	507	513	510	31	0	
12	0	0	0	0	0	508	510	509	32	0	
13	0	0	0	0	0	506	510	509	31	0	
14	0	0	0	0	2	504	512	510	31	0	
15	0	0	0	0	0	506	513	509	31	0	
0	0	0	0	0	0	507	514	509	32	0	
1	0	0	0	0	0	507	511	508	32	0	
2	0	0	0	0	0	506	511	509	32	0	
3	0	0	0	0	0	505	510	510	31	0	
4	0	0	0	0	0	504	511	508	31	0	
5	0	0	0	0	0	503	511	511	31	0	
6	0	0	0	0	3	500	511	509	31	0	
7	0	0	0	0	0	503	514	510	31	0	
8	0	0	0	0	0	508	514	510	31	0	
9	0	0	0	0	0	508	512	509	31	0	
10	0	0	0	0	0	510	512	510	31	0	
11	0	0	0	0	0	510	516	508	31	0	
12	0	0	0	0	0	503	516	508	31	0	
13	0	0	0	0	0	504	516	510	31	0	
14	0	0	0	0	3	506	513	509	31	0	
15	0	0	0	0	0	505	513	510	31	0	
0	0	0	0	0	0	501	513	509	31	0	
1	0	0	0	0	0	503	514	508	31	0	
2	0	0	0	0	0	505	514	510	31	0	
3	0	0	0	0	0	500	510	508	31	0	
4	0	0	0	0	0	504	511	510	31	0	
5	0	0	0	0	0	504	509	509	31	0	
6	0	0	0	0	2	505	509	509	31	0	
7	0	0	0	0	0	503	508	509	32	0	
8	0	0	0	0	0	503	507	508	32	0	
9	0	0	0	0	0	504	511	508	32	0	
10	0	0	0	0	0	508	512	511	31	0	
11	0	0	0	0	0	508	512	510	31	0	
12	0	0	0	0	0	508	514	508	31	0	
13	0	0	0	0	0	509	513	508	31	0	
14	0	0	0	0	2	506	513	511	31	0	
15	0	0	0	0	0	505	511	508	31	0	
0	0	0	0	0	0	502	513	510	31	0	
1	0	0	0	0	0	504	513	510	31	0	
2	0	0	0	0	0	507	508	509	31	0	
3	0	0	0	0	0	506	510	510	32	0	
4	0	0	0	0	0	506	512	510	31	0	
5	0	0	0	0	0	503	512	509	31	0	
6	0	0	0	0	2	500	512	510	31	0	
7	0	0	0	0	0	503	513	509	31	0	
8	0	0	0	0	0	506	517	510	31	0	
9	0	0	0	0	0	503	516	509	31	0	
10	0	0	0	0	0	506	514	510	32	0	
11	0	0	0	0	0	508	509	510	32	0	
12	0	0	0	0	0	504	507	508	32	0	
13	0	0	0	0	0	505	511	509	31	0	
14	0	0	0	0	1	505	510	508	32	0	
15	0	0	0	0	0	506	509	510	31	0	
0	0	0	0	0	0	508	511	509	32	0	
1	0	0	0	0	0	508	510	508	31	0	
2	0	0	0	0	0	507	511	509	32	0	
3	0	0	0	0	0	507	511	510	31	0	
4	0	0	0	0	0	506	512	511	31	0	
5	0	0	0	0	0	504	513	508	31	0	
6	0	0	0	0	1	503	515	510	31	0	
7	0	0	0	0	0	500	512	509	31	0	
8	0	0	0	0	0	499	511	508	31	0	
9	0	0	0	0	0	502	515	511	31	0	
10	0	0	0	0	0	504	515	511	31	0	
11	0	0	0	0	0	505	515	509	31	0	
12	0	0	0	0	0	504	511	510	31	0	
13	0	0	0	0	0	508	514	509	31	0	
14	0	0	0	0	2	505	511	510	31	0	
15	0	0	0	0	0	504	510	510	32	0	
0	0	0	0	0	0	504	513	508	32	0	
1	0	0	0	0	0	505	514	508	32	0	
2	0	0	0	0	0	510	511	508	31	0	
3	0	0	0	0	0	508	510	511	31	0	
4	0	0	0	0	0	507	513	509	31	0	
5	0	0	0	0	0	507	514	508	31	0	
6	0	0	0	0	2	508	515	510	31	0	
7	0	0	0	0	0	508	511	511	32	0	
8	0	0	0	0	0	508	515	509	32	0	
9	0	0	0	0	0	505	514	509	31	0	
10	0	0	0	0	0	504	515	509	31	0	
11	0	0	0	0	0	506	519	509	31	0	
12	0	0	0	0	0	498	515	508	31	0	
13	0	0	0	0	0	495	511	509	31	0	
14	0	0	0	0	2	501	509	509	31	0	
15	0	0	0	0	0	504	504	509	31	0	
0	0	0	0	0	0	502	501	510	32	0	
1	0	0	0	0	0	504	505	508	32	0	
2	0	0	0	0	0	503	507	509	31	0	
3	0	0	0	0	0	504	507	510	32	0	
4	0	0	0	0	0	504	507	509	32	0	
5	0	0	0	0	0	503	513	511	32	0	
6	0	0	0	0	3	510	521	508	31	0	
7	0	0	0	0	0	510	522	509	31	0	
8	0	0	0	0	0	512	520	510	31	0	
9	0	0	0	0	0	510	513	509	31	0	
10	0	0	0	0	0	505	506	510	32	0	
11	0	0	0	0	0	503	504	510	32	0	
12	0	0	0	0	0	504	514	510	32	0	
13	0	0	0	0	0	502	512	509	31	0	
14	0	0	0	0	3	508	511	509	31	0	
15	0	0	0	0	0	512	513	509	32	0	
0	0	0	0	0	0	505	513	510	32	0	
1	0	0	0	0	0	505	519	509	31	0	
2	0	0	0	0	0	504	516	510	31	0	
3	0	0	0	0	0	507	511	508	31	0	
4	0	0	0	0	0	511	505	511	32	0	
5	0	0	0	0	0	508	508	509	32	0	
6	0	0	0	0	2	507	508	509	32	0	
7	0	0	0	0	0	511	512	509	31	0	
8	0	0	0	0	0	504	514	509	31	0	
9	0	0	0	0	0	500	513	510	31	0	
10	0	0	0	0	0	501	515	509	31	0	
11	0	0	0	0	0	502	515	508	31	0	
12	0	0	0	0	0	503	517	509	31	0	
13	0	0	0	0	0	505	519	508	31	0	
14	0	0	0	0	2	506	521	510	31	0	
15	0	0	0	0	0	504	515	508	31	0	
0	0	0	0	0	0	502	508	508	31	0	
1	0	0	0	0	0	505	507	509	32	0	
2	0	0	0	0	0	502	511	508	31	0	
3	0	0	0	0	0	504	513	509	31	0	
4	0	0	0	0	0	507	510	509	31	0	
5	0	0	0	0	0	512	502	509	32	0	
6	0	0	0	0	2	511	499	510	32	0	
7	0	0	0	0	0	500	506	510	32	0	
8	0	0	0	0	0	495	509	510	32	0	
9	0	0	0	0	0	492	509	509	32	0	
10	0	0	0	0	0	497	508	510	31	0	
11	0	0	0	0	0	506	509	509	31	0	
12	0	0	0	0	0	509	513	509	31	0	
13	0	0	0	0	0	510	516	511	31	0	
14	0	0	0	0	3	509	519	509	31	0	
15	0	0	0	0	0	505	518	509	31	0	
0	0	0	0	0	0	506	515	509	31	0	
1	0	0	0	0	0	505	514	508	32	0	
2	0	0	0	0	0	505	516	510	32	0	
3	0	0	0	0	0	504	519	510	32	0	
4	0	0	0	0	0	505	519	509	32	0	
5	0	0	0	0	0	504	516	510	31	0	
6	0	0	0	0	2	512	514	509	31	0	
7	0	0	0	0	0	513	511	509	31	0	
8	0	0	0	0	0	509	513	508	31	0	
9	0	0	0	0	0	508	514	510	31	0	
10	0	0	0	0	0	509	515	510	31	0	
11	0	0	0	0	0	506	507	509	32	0	
12	0	0	0	0	0	502	504	510	32	0	
13	0	0	0	0	0	503	507	509	32	0	
14	0	0	0	0	2	502	508	510	31	0	
15	0	0	0	0	0	497	508	510	31	0	
0	0	0	0	0	0	503	510	508	31	0	
1	0	0	0	0	0	507	508	510	31	0	
2	0	0	0	0	0	507	510	510	31	0	
3	0	0	0	0	0	502	509	510	31	0	
4	0	0	0	0	0	500	508	509	31	0	
5	0	0	0	0	0	499	509	508	32	0	
6	0	0	0	0	1	501	511	509	31	0	
7	0	0	0	0	0	506	513	509	32	0	
8	0	0	0	0	0	507	515	510	32	0	
9	0	0	0	0	0	505	516	510	31	0	
10	0	0	0	0	0	509	516	507	31	0	
11	0	0	0	0	0	510	517	509	31	0	
12	0	0	0	0	0	509	515	511	31	0	
13	0	0	0	0	0	500	513	510	31	0	
14	0	0	0	0	1	498	512	509	31	0	
15	0	0	0	0	0	500	518	510	31	0	
0	0	0	0	0	0	503	515	510	32	0	
1	0	0	0	0	0	507	513	507	31	0	
2	0	0	0	0	0	508	509	510	31	0	
3	0	0	0	0	0	507	509	510	31	0	
4	0	0	0	0	0	505	507	509	31	0	
5	0	0	0	0	0	502	505	510	31	0	
6	0	0	0	0	1	508	514	509	31	0	
7	0	0	0	0	0	504	522	511	32	0	
8	0	0	0	0	0	505	519	508	32	0	
9	0	0	0	0	0	505	512	509	31	0	
10	0	0	0	0	0	508	508	510	31	0	
11	0	0	0	0	0	510	509	508	31	0	
12	0	0	0	0	0	509	513	510	31	0	
13	0	0	0	0	0	508	513	508	31	0	
14	0	0	0	0	2	505	511	508	32	0	
15	0	0	0	0	0	503	515	510	31	0	
0	0	0	0	0	0	503	510	508	31	0	
1	0	0	0	0	0	507	512	509	31	0	
2	0	0	0	0	0	512	509	509	31	0	
3	0	0	0	0	0	510	510	509	31	0	
4	0	0	0	0	0	504	512	510	31	0	
5	0	0	0	0	0	502	514	510	32	0	
6	0	0	0	0	2	502	515	509	32	0	
7	0	0	0	0	0	501	516	509	32	0	
8	0	0	0	0	0	503	507	508	32	0	
9	0	0	0	0	0	500	504	508	32	0	
10	0	0	0	0	0	501	504	511	32	0	
11	0	0	0	0	0	500	505	508	31	0	
12	0	0	0	0	0	503	511	510	31	0	
13	0	0	0	0	0	508	509	509	31	0	
14	0	0	0	0	2	507	513	510	31	0	
15	0	0	0	0	0	507	513	507	31	0	
0	0	0	0	0	0	507	517	510	31	0	
1	0	0	0	0	0	504	518	509	31	0	
2	0	0	0	0	0	507	519	508	31	0	
3	0	0	0	0	0	508	517	510	31	0	
4	0	0	0	0	0	505	519	508	31	0	
5	0	0	0	0	0	508	520	509	31	0	
6	0	0	0	0	2	508	522	510	31	0	
7	0	0	0	0	0	501	515	508	31	0	
8	0	0	0	0	0	503	508	508	32	0	
9	0	0	0	0	0	503	504	511	32	0	
10	0	0	0	0	0	504	504	508	32	0	
11	0	0	0	0	0	507	502	509	32	0	
12	0	0	0	0	0	508	501	508	31	0	
13	0	0	0	0	0	509	505	510	31	0	
14	0	0	0	0	3	505	508	508	31	0	
15	0	0	0	0	0	507	516	510	31	0	
0	0	0	0	0	0	504	518	509	31	0	
1	0	0	0	0	0	504	521	509	31	0	
2	0	0	0	0	0	503	521	512	32	0	
3	0	0	0	0	0	505	514	508	32	0	
4	0	0	0	0	0	509	513	509	32	0	
5	0	0	0	0	0	508	510	509	31	0	
6	0	0	0	0	3	506	511	508	31	0	
7	0	0	0	0	0	505	517	510	31	0	
8	0	0	0	0	0	504	517	508	31	0	
9	0	0	0	0	0	500	513	511	31	0	
10	0	0	0	0	0	501	508	509	31	0	
11	0	0	0	0	0	506	504	508	32	0	
12	0	0	0	0	0	506	507	511	32	0	
13	0	0	0	0	0	507	508	508	32	0	
14	0	0	0	0	2	506	512	508	32	0	
15	0	0	0	0	0	507	511	508	31	0	
0	0	0	0	0	0	505	513	509	31	0	
1	0	0	0	0	0	505	512	510	31	0	
2	0	0	0	0	0	501	512	508	31	0	
3	0	0	0	0	0	503	510	508	31	0	
4	0	0	0	0	0	503	513	508	31	0	
5	0	0	0	0	0	506	509	509	32	0	
6	0	0	0	0	2	504	509	511	32	0	
7	0	0	0	0	0	503	510	508	31	0	
8	0	0	0	0	0	506	511	510	31	0	
9	0	0	0	0	0	504	513	509	31	0	
10	0	0	0	0	0	502	514	510	31	0	
11	0	0	0	0	0	504	515	510	31	0	
12	0	0	0	0	0	507	515	510	31	0	
13	0	0	0	0	0	507	515	510	31	0	
14	0	0	0	0	2	503	512	510	31	0	
15	0	0	0	0	0	505	508	509	31	0	
0	0	0	0	0	0	505	513	510	31	0	
1	0	0	0	0	0	506	520	508	31	0	
2	0	0	0	0	0	511	527	508	31	0	
3	0	0	0	0	0	515	526	511	31	0	
4	0	0	0	0	0	513	521	508	31	0	
5	0	0	0	0	0	508	510	509	31	0	
6	0	0	0	0	2	503	503	510	31	0	
7	0	0	0	0	0	497	498	510	31	0	
8	0	0	0	0	0	494	498	508	32	0	
9	0	0	0	0	0	494	495	507	32	0	
10	0	0	0	0	0	499	502	510	32	0	
11	0	0	0	0	0	502	509	509	32	0	
12	0	0	0	0	0	504	513	510	32	0	
13	0	0	0	0	0	508	520	510	31	0	
14	0	0	0	0	3	511	521	508	31	0	
15	0	0	0	0	0	512	518	510	31	0	
0	0	0	0	0	0	514	514	509	31	0	
1	0	0	0	0	0	509	509	510	31	0	
2	0	0	0	0	0	505	508	510	31	0	
3	0	0	0	0	0	499	509	509	31	0	
4	0	0	0	0	0	501	509	509	32	0	
5	0	0	0	0	0	504	505	510	31	0	
6	0	0	0	0	1	503	509	510	31	0	
7	0	0	0	0	0	507	514	509	31	0	
8	0	0	0	0	0	514	521	508	31	0	
9	0	0	0	0	0	518	522	508	31	0	
10	0	0	0	0	0	509	518	511	31	0	
11	0	0	0	0	0	500	515	510	31	0	
12	0	0	0	0	0	498	512	509	31	0	
13	0	0	0	0	0	496	510	508	31	0	
14	0	0	0	0	1	498	511	509	31	0	
15	0	0	0	0	0	502	510	511	31	0	
0	0	0	0	0	0	499	508	509	31	0	
1	0	0	0	0	0	501	506	509	32	0	
2	0	0	0	0	0	505	509	509	32	0	
3	0	0	0	0	0	506	510	511	31	0	
4	0	0	0	0	0	504	508	508	31	0	
5	0	0	0	0	0	505	509	508	31	0	
6	0	0	0	0	1	508	508	509	31	0	
7	0	0	0	0	0	507	521	510	31	0	
8	0	0	0	0	0	507	528	510	31	0	
9	0	0	0	0	0	510	525	508	31	0	
10	0	0	0	0	0	514	523	510	31	0	
11	0	0	0	0	0	510	519	510	31	0	
12	0	0	0	0	0	505	512	509	31	0	
13	0	0	0	0	0	508	505	509	31	0	
14	0	0	0	0	3	510	501	509	31	0	
15	0	0	0	0	0	505	494	509	32	0	
0	0	0	0	0	0	502	502	510	32	0	
1	0	0	0	0	0	503	507	508	32	0	
2	0	0	0	0	0	504	509	510	32	0	
3	0	0	0	0	0	507	515	512	31	0	
4	0	0	0	0	0	509	521	508	31	0	
5	0	0	0	0	0	510	517	508	31	0	
6	0	0	0	0	3	505	515	508	31	0	
7	0	0	0	0	0	501	515	510	31	0	
8	0	0	0	0	0	499	509	509	32	0	
9	0	0	0	0	0	496	508	509	32	0	
10	0	0	0	0	0	500	508	510	31	0	
11	0	0	0	0	0	502	511	508	31	0	
12	0	0	0	0	0	504	512	511	31	0	
13	0	0	0	0	0	504	509	508	31	0	
14	0	0	0	0	3	503	508	510	31	0	
15	0	0	0	0	0	502	511	509	32	0	
0	0	0	0	0	0	507	515	508	31	0	
1	0	0	0	0	0	511	514	509	31	0	
2	0	0	0	0	0	510	515	508	31	0	
3	0	0	0	0	0	508	511	510	32	0	
4	0	0	0	0	0	510	513	509	31	0	
5	0	0	0	0	0	508	516	508	31	0	
6	0	0	0	0	2	507	511	510	31	0	
7	0	0	0	0	0	504	511	508	31	0	
8	0	0	0	0	0	504	517	510	31	0	
9	0	0	0	0	0	504	515	510	31	0	
10	0	0	0	0	0	498	509	509	32	0	
11	0	0	0	0	0	500	510	511	32	0	
12	0	0	0	0	0	501	506	510	32	0	
13	0	0	0	0	0	502	508	509	32	0	
14	0	0	0	0	2	504	513	509	31	0	
15	0	0	0	0	0	509	516	509	31	0	
0	0	0	0	0	0	508	519	510	31	0	
1	0	0	0	0	0	509	519	507	31	0	
2	0	0	0	0	0	512	516	509	31	0	
3	0	0	0	0	0	511	507	510	31	0	
4	0	0	0	0	0	507	505	510	31	0	
5	0	0	0	0	0	510	509	511	31	0	
6	0	0	0	0	3	506	509	510	32	0	
7	0	0	0	0	0	503	508	510	32	0	
8	0	0	0	0	0	498	509	510	32	0	
9	0	0	0	0	0	494	508	510	32	0	
10	0	0	0	0	0	497	510	510	32	0	
11	0	0	0	0	0	499	509	510	31	0	
12	0	0	0	0	0	503	508	509	31	0	
13	0	0	0	0	0	505	511	509	31	0	
14	0	0	0	0	2	509	511	508	31	0	
15	0	0	0	0	0	509	512	508	32	0	
0	0	0	0	0	0	506	511	511	31	0	
1	0	0	0	0	0	507	513	508	31	0	
2	0	0	0	0	0	504	513	508	31	0	
3	0	0	0	0	0	500	512	509	31	0	
4	0	0	0	0	0	501	515	511	31	0	
5	0	0	0	0	0	503	516	508	31	0	
6	0	0	0	0	2	505	513	511	31	0	
7	0	0	0	0	0	507	511	509	31	0	
8	0	0	0	0	0	509	512	509	31	0	
9	0	0	0	0	0	510	513	510	31	0	
10	0	0	0	0	0	510	515	510	31	0	
11	0	0	0	0	0	516	515	510	31	0	
12	0	0	0	0	0	512	516	509	31	0	
13	0	0	0	0	0	508	516	508	31	0	
14	0	0	0	0	2	505	515	510	31	0	
15	0	0	0	0	0	505	513	509	32	0	
0	0	0	0	0	0	503	510	509	32	0	
1	0	0	0	0	0	500	512	510	31	0	
2	0	0	0	0	0	502	512	508	31	0	
3	0	0	0	0	0	506	513	509	31	0	
4	0	0	0	0	0	504	514	509	31	0	
5	0	0	0	0	0	503	511	509	31	0	
6	0	0	0	0	2	505	508	509	31	0	
7	0	0	0	0	0	504	508	510	32	0	
8	0	0	0	0	0	502	510	510	31	0	
9	0	0	0	0	0	501	512	510	32	0	
10	0	0	0	0	0	504	510	509	31	0	
11	0	0	0	0	0	504	510	509	31	0	
12	0	0	0	0	0	507	509	507	31	0	
13	0	0	0	0	0	507	516	510	31	0	
14	0	0	0	0	2	508	515	510	31	0	
15	0	0	0	0	0	506	513	508	31	0	
0	0	0	0	0	0	504	513	510	31	0	
1	0	0	0	0	0	500	511	509	32	0	
2	0	0	0	0	0	501	510	510	32	0	
3	0	0	0	0	0	501	509	510	31	0	
4	0	0	0	0	0	501	513	510	31	0	
5	0	0	0	0	0	507	513	509	32	0	
6	0	0	0	0	1	506	509	508	31	0	
7	0	0	0	0	0	508	508	510	31	0	
8	0	0	0	0	0	510	508	509	31	0	
9	0	0	0	0	0	507	508	510	31	0	
10	0	0	0	0	0	504	510	510	31	0	
11	0	0	0	0	0	499	516	508	31	0	
12	0	0	0	0	0	499	519	509	31	0	
13	0	0	0	0	0	500	512	509	31	0	
14	0	0	0	0	1	505	505	509	31	0	
15	0	0	0	0	0	507	503	511	31	0	
0	0	0	0	0	0	513	508	510	31	0	
1	0	0	0	0	0	514	516	508	32	0	
2	0	0	0	0	0	514	529	508	31	0	
3	0	0	0	0	0	513	529	510	31	0	
4	0	0	0	0	0	505	518	510	31	0	
5	0	0	0	0	0	500	512	509	31	0	
6	0	0	0	0	2	498	509	510	31	0	
7	0	0	0	0	0	499	509	509	31	0	
8	0	0	0	0	0	500	505	508	31	0	
9	0	0	0	0	0	504	507	508	31	0	
10	0	0	0	0	0	508	514	509	31	0	
11	0	0	0	0	0	510	515	511	31	0	
12	0	0	0	0	0	508	510	510	32	0	
13	0	0	0	0	0	508	509	510	32	0	
14	0	0	0	0	2	507	507	510	31	0	
15	0	0	0	0	0	508	508	508	31	0	
0	0	0	0	0	0	507	508	509	31	0	
1	0	0	0	0	0	503	510	508	31	0	
2	0	0	0	0	0	502	507	509	31	0	
3	0	0	0	0	0	503	515	510	31	0	
4	0	0	0	0	0	503	515	507	31	0	
5	0	0	0	0	0	500	515	510	32	0	
6	0	0	0	0	2	499	515	508	31	0	
7	0	0	0	0	0	502	521	510	31	0	
8	0	0	0	0	0	502	519	509	31	0	
9	0	0	0	0	0	504	513	508	31	0	
10	0	0	0	0	0	507	512	509	31	0	
11	0	0	0	0	0	506	516	509	31	0	
12	0	0	0	0	0	500	509	510	31	0	
13	0	0	0	0	0	497	503	509	31	0	
14	0	0	0	0	3	498	503	510	31	0	
15	0	0	0	0	0	505	504	510	31	0	
0	0	0	0	0	0	509	511	508	31	0	
1	0	0	0	0	0	516	511	510	31	0	
2	0	0	0	0	0	517	513	509	31	0	
3	0	0	0	0	0	517	511	509	32	0	
4	0	0	0	0	0	512	521	511	32	0	
5	0	0	0	0	0	507	522	507	32	0	
6	0	0	0	0	2	499	516	509	32	0	
7	0	0	0	0	0	496	505	510	31	0	
8	0	0	0	0	0	496	502	508	31	0	
9	0	0	0	0	0	502	502	510	31	0	
10	0	0	0	0	0	506	508	508	31	0	
11	0	0	0	0	0	504	512	509	31	0	
12	0	0	0	0	0	501	505	509	31	0	
13	0	0	0	0	0	507	507	509	32	0	
14	0	0	0	0	2	517	527	510	31	0	
15	0	0	0	0	0	516	536	508	31	0	
0	0	0	0	0	0	519	531	510	31	0	
1	0	0	0	0	0	515	519	509	31	0	
2	0	0	0	0	0	503	508	508	31	0	
3	0	0	0	0	0	497	506	511	31	0	
4	0	0	0	0	0	496	512	508	31	0	
5	0	0	0	0	0	499	513	509	32	0	
6	0	0	0	0	2	504	518	508	31	0	
7	0	0	0	0	0	507	531	509	31	0	
8	0	0	0	0	0	508	526	510	31	0	
9	0	0	0	0	0	504	508	508	31	0	
10	0	0	0	0	0	506	503	510	31	0	
11	0	0	0	0	0	503	499	510	31	0	
12	0	0	0	0	0	499	502	508	31	0	
13	0	0	0	0	0	496	501	510	32	0	
14	0	0	0	0	2	503	498	510	32	0	
15	0	0	0	0	0	508	502	510	32	0	
0	0	0	0	0	0	504	507	510	32	0	
1	0	0	0	0	0	504	508	508	31	0	
2	0	0	0	0	0	509	512	508	31	0	
3	0	0	0	0	0	512	514	510	31	0	
4	0	0	0	0	0	505	515	510	31	0	
5	0	0	0	0	0	498	511	510	31	0	
6	0	0	0	0	3	496	507	508	32	0	
7	0	0	0	0	0	496	510	510	32	0	
8	0	0	0	0	0	495	513	510	32	0	
9	0	0	0	0	0	503	515	509	31	0	
10	0	0	0	0	0	510	512	510	31	0	
11	0	0	0	0	0	513	513	510	31	0	
12	0	0	0	0	0	515	519	510	31	0	
13	0	0	0	0	0	512	517	509	31	0	
14	0	0	0	0	2	506	520	511	31	0	
15	0	0	0	0	0	502	513	510	31	0	
0	0	0	0	0	0	501	511	508	31	0	
1	0	0	0	0	0	505	515	509	31	0	
2	0	0	0	0	0	505	520	509	31	0	
3	0	0	0	0	0	505	522	508	31	0	
4	0	0	0	0	0	504	511	509	32	0	
5	0	0	0	0	0	503	497	508	31	0	
6	0	0	0	0	2	505	504	510	32	0	
7	0	0	0	0	0	513	510	511	32	0	
8	0	0	0	0	0	510	512	508	31	0	
9	0	0	0	0	0	508	515	508	31	0	
10	0	0	0	0	0	508	516	508	31	0	
11	0	0	0	0	0	506	519	508	31	0	
12	0	0	0	0	0	500	521	509	31	0	
13	0	0	0	0	0	502	515	509	31	0	
14	0	0	0	0	1	500	510	511	31	0	
15	0	0	0	0	0	505	513	509	31	0	
0	0	0	0	0	0	503	510	508	31	0	
1	0	0	0	0	0	502	502	511	31	0	
2	0	0	0	0	0	500	501	508	31	0	
3	0	0	0	0	0	502	497	511	32	0	
4	0	0	0	0	0	500	508	509	32	0	
5	0	0	0	0	0	505	517	510	31	0	
6	0	0	0	0	1	510	520	508	31	0	
7	0	0	0	0	0	510	512	510	31	0	
8	0	0	0	0	0	510	496	510	31	0	
9	0	0	0	0	0	508	492	509	32	0	
10	0	0	0	0	0	509	507	510	32	0	
11	0	0	0	0	0	506	515	508	32	0	
12	0	0	0	0	0	503	528	508	32	0	
13	0	0	0	0	0	505	550	510	31	0	
14	0	0	0	0	1	502	540	508	31	0	
15	0	0	0	0	0	509	517	511	31	0	
0	0	0	0	0	0	510	506	508	31	0	
1	0	0	0	0	0	507	503	510	31	0	
2	0	0	0	0	0	505	501	510	31	0	
3	0	0	0	0	0	507	500	510	31	0	
4	0	0	0	0	0	507	503	511	31	0	
5	0	0	0	0	0	508	505	508	31	0	
6	0	0	0	0	2	511	511	509	31	0	
7	0	0	0	0	0	510	521	509	31	0	
8	0	0	0	0	0	507	515	510	31	0	
9	0	0	0	0	0	506	506	511	31	0	
10	0	0	0	0	0	499	503	508	31	0	
11	0	0	0	0	0	497	506	508	31	0	
12	0	0	0	0	0	496	510	511	32	0	
13	0	0	0	0	0	499	507	508	32	0	
14	0	0	0	0	2	499	514	511	31	0	
15	0	0	0	0	0	499	531	510	31	0	
0	0	0	0	0	0	503	529	510	31	0	
1	0	0	0	0	0	502	515	510	31	0	
2	0	0	0	0	0	504	507	507	31	0	
3	0	0	0	0	0	504	507	508	32	0	
4	0	0	0	0	0	506	505	509	32	0	
5	0	0	0	0	0	503	511	510	31	0	
6	0	0	0	0	2	507	528	509	31	0	
7	0	0	0	0	0	505	529	509	31	0	
8	0	0	0	0	0	510	519	510	31	0	
9	0	0	0	0	0	509	502	509	31	0	
10	0	0	0	0	0	509	500	510	31	0	
11	0	0	0	0	0	505	493	511	32	0	
12	0	0	0	0	0	503	504	508	32	0	
13	0	0	0	0	0	498	511	508	31	0	
14	0	0	0	0	2	502	516	510	31	0	
15	0	0	0	0	0	504	516	510	31	0	
0	0	0	0	0	0	509	509	509	31	0	
1	0	0	0	0	0	510	503	508	32	0	
2	0	0	0	0	0	509	505	508	32	0	
3	0	0	0	0	0	511	507	509	31	0	
4	0	0	0	0	0	508	515	511	31	0	
5	0	0	0	0	0	504	519	510	31	0	
6	0	0	0	0	3	504	518	508	31	0	
7	0	0	0	0	0	504	517	509	31	0	
8	0	0	0	0	0	505	513	511	31	0	
9	0	0	0	0	0	505	512	508	31	0	
10	0	0	0	0	0	505	521	510	31	0	
11	0	0	0	0	0	505	516	508	31	0	
12	0	0	0	0	0	504	511	509	31	0	
13	0	0	0	0	0	500	508	511	31	0	
14	0	0	0	0	2	502	515	509	31	0	
15	0	0	0	0	0	502	520	511	31	0	
0	0	0	0	0	0	503	511	509	31	0	
1	0	0	0	0	0	506	509	509	31	0	
2	0	0	0	0	0	507	505	510	31	0	
3	0	0	0	0	0	509	504	510	31	0	
4	0	0	0	0	0	502	512	509	31	0	
5	0	0	0	0	0	499	519	509	31	0	
6	0	0	0	0	2	504	523	510	31	0	
7	0	0	0	0	0	508	524	511	31	0	
8	0	0	0	0	0	509	519	508	31	0	
9	0	0	0	0	0	510	513	509	31	0	
10	0	0	0	0	0	509	507	508	31	0	
11	0	0	0	0	0	507	499	509	31	0	
12	0	0	0	0	0	503	496	509	31	0	
13	0	0	0	0	0	502	501	509	32	0	
14	0	0	0	0	2	499	516	508	31	0	
15	0	0	0	0	0	503	517	508	31	0	
0	0	0	0	0	0	507	508	510	31	0	
1	0	0	0	0	0	506	502	509	32	0	
2	0	0	0	0	0	502	506	510	32	0	
3	0	0	0	0	0	501	510	509	32	0	
4	0	0	0	0	0	501	511	508	31	0	
5	0	0	0	0	0	507	516	510	31	0	
6	0	0	0	0	3	509	517	509	31	0	
7	0	0	0	0	0	508	519	510	31	0	
8	0	0	0	0	0	510	521	509	31	0	
9	0	0	0	0	0	507	521	509	31	0	
10	0	0	0	0	0	505	517	510	31	0	
11	0	0	0	0	0	507	510	509	31	0	
12	0	0	0	0	0	510	496	509	31	0	
13	0	0	0	0	0	508	495	508	32	0	
14	0	0	0	0	2	507	498	508	31	0	
15	0	0	0	0	0	502	510	510	32	0	
0	0	0	0	0	0	499	522	510	32	0	
1	0	0	0	0	0	496	527	509	31	0	
2	0	0	0	0	0	493	519	510	31	0	
3	0	0	0	0	0	495	513	509	31	0	
4	0	0	0	0	0	500	516	511	31	0	
5	0	0	0	0	0	508	518	510	31	0	
6	0	0	0	0	2	515	517	510	31	0	
7	0	0	0	0	0	513	509	510	31	0	
8	0	0	0	0	0	516	509	509	31	0	
9	0	0	0	0	0	520	509	509	31	0	
10	0	0	0	0	0	519	515	510	31	0	
11	0	0	0	0	0	521	513	509	31	0	
12	0	0	0	0	0	518	507	508	31	0	
13	0	0	0	0	0	502	512	510	31	0	
14	0	0	0	0	1	492	513	510	31	0	
15	0	0	0	0	0	492	509	508	31	0	
0	0	0	0	0	0	495	512	509	31	0	
1	0	0	0	0	0	498	521	508	31	0	
2	0	0	0	0	0	503	524	509	31	0	
3	0	0	0	0	0	500	515	512	31	0	
4	0	0	0	0	0	502	510	509	31	0	
5	0	0	0	0	0	505	508	509	31	0	
6	0	0	0	0	1	502	505	509	31	0	
7	0	0	0	0	0	505	508	509	31	0	
8	0	0	0	0	0	508	512	511	31	0	
9	0	0	0	0	0	507	505	509	31	0	
10	0	0	0	0	0	507	502	510	32	0	
11	0	0	0	0	0	504	505	510	32	0	
12	0	0	0	0	0	503	502	508	32	0	
13	0	0	0	0	0	502	503	509	32	0	
14	0	0	0	0	1	504	508	510	31	0	
15	0	0	0	0	0	508	508	510	32	0	
0	0	0	0	0	0	508	521	510	31	0	
1	0	0	0	0	0	506	532	508	31	0	
2	0	0	0	0	0	505	524	510	31	0	
3	0	0	0	0	0	508	524	509	31	0	
4	0	0	0	0	0	510	517	510	31	0	
5	0	0	0	0	0	509	512	510	31	0	
6	0	0	0	0	3	508	508	508	32	0	
7	0	0	0	0	0	508	510	510	32	0	
8	0	0	0	0	0	509	513	510	32	0	
9	0	0	0	0	0	511	510	508	31	0	
10	0	0	0	0	0	507	506	509	31	0	
11	0	0	0	0	0	500	504	507	31	0	
12	0	0	0	0	0	497	503	510	31	0	
13	0	0	0	0	0	495	513	510	31	0	
14	0	0	0	0	2	494	518	509	31	0	
15	0	0	0	0	0	494	517	510	31	0	
0	0	0	0	0	0	497	513	510	31	0	
1	0	0	0	0	0	495	496	510	31	0	
2	0	0	0	0	0	505	487	507	31	0	
3	0	0	0	0	0	522	499	509	31	0	
4	0	0	0	0	0	522	524	508	31	0	
5	0	0	0	0	0	515	544	510	31	0	
6	0	0	0	0	2	511	547	509	31	0	
7	0	0	0	0	0	508	524	508	31	0	
8	0	0	0	0	0	505	507	510	31	0	
9	0	0	0	0	0	505	501	509	31	0	
10	0	0	0	0	0	504	506	509	31	0	
11	0	0	0	0	0	503	509	510	31	0	
12	0	0	0	0	0	504	507	509	32	0	
13	0	0	0	0	0	500	504	509	32	0	
14	0	0	0	0	2	499	504	510	31	0	
15	0	0	0	0	0	499	504	510	31	0	
0	0	0	0	0	0	502	511	510	31	0	
1	0	0	0	0	0	503	513	509	31	0	
2	0	0	0	0	0	503	503	510	31	0	
3	0	0	0	0	0	507	495	508	31	0	
4	0	0	0	0	0	506	499	510	31	0	
5	0	0	0	0	0	506	505	510	31	0	
6	0	0	0	0	2	508	524	508	31	0	
7	0	0	0	0	0	507	563	508	31	0	
8	0	0	0	0	0	506	561	508	31	0	
9	0	0	0	0	0	505	533	510	31	0	
10	0	0	0	0	0	506	508	510	31	0	
11	0	0	0	0	0	505	498	508	31	0	
12	0	0	0	0	0	510	494	509	31	0	
13	0	0	0	0	0	512	494	509	31	0	
14	0	0	0	0	3	507	500	509	31	0	
15	0	0	0	0	0	502	507	510	32	0	
0	0	0	0	0	0	501	507	511	32	0	
1	0	0	0	0	0	503	509	510	32	0	
2	0	0	0	0	0	507	510	510	32	0	
3	0	0	0	0	0	509	507	508	31	0	
4	0	0	0	0	0	505	511	510	31	0	
5	0	0	0	0	0	502	512	508	31	0	
6	0	0	0	0	2	507	512	508	31	0	
7	0	0	0	0	0	508	507	510	31	0	
8	0	0	0	0	0	504	512	508	31	0	
9	0	0	0	0	0	503	512	510	31	0	
10	0	0	0	0	0	503	520	508	31	0	
11	0	0	0	0	0	502	532	510	31	0	
12	0	0	0	0	0	500	522	509	31	0	
13	0	0	0	0	0	503	511	508	31	0	
14	0	0	0	0	2	507	501	510	32	0	
15	0	0	0	0	0	504	497	508	32	0	
0	0	0	0	0	0	500	496	510	31	0	
1	0	0	0	0	0	502	507	510	31	0	
2	0	0	0	0	0	510	514	508	31	0	
3	0	0	0	0	0	514	526	508	31	0	
4	0	0	0	0	0	514	521	508	31	0	
5	0	0	0	0	0	510	517	509	31	0	
6	0	0	0	0	2	507	521	509	31	0	
7	0	0	0	0	0	502	524	508	31	0	
8	0	0	0	0	0	503	518	511	31	0	
9	0	0	0	0	0	502	513	508	31	0	
10	0	0	0	0	0	502	501	509	32	0	
11	0	0	0	0	0	497	496	510	32	0	
12	0	0	0	0	0	497	489	508	32	0	
13	0	0	0	0	0	498	496	511	32	0	
14	0	0	0	0	3	505	503	508	32	0	
15	0	0	0	0	0	510	518	509	31	0	
0	0	0	0	0	0	512	537	508	31	0	
1	0	0	0	0	0	511	536	507	31	0	
2	0	0	0	0	0	512	532	510	31	0	
3	0	0	0	0	0	507	529	509	31	0	
4	0	0	0	0	0	510	519	509	31	0	
5	0	0	0	0	0	508	502	510	31	0	
6	0	0	0	0	2	506	496	508	31	0	
7	0	0	0	0	0	502	489	510	32	0	
8	0	0	0	0	0	501	489	508	31	0	
9	0	0	0	0	0	500	502	511	31	0	
10	0	0	0	0	0	496	513	510	31	0	
11	0	0	0	0	0	494	527	508	31	0	
12	0	0	0	0	0	496	530	511	32	0	
13	0	0	0	0	0	502	519	508	32	0	
14	0	0	0	0	1	508	507	509	32	0	
15	0	0	0	0	0	505	508	510	32	0	
0	0	0	0	0	0	504	512	509	32	0	
1	0	0	0	0	0	507	511	511	32	0	
2	0	0	0	0	0	505	512	508	31	0	
3	0	0	0	0	0	508	510	510	31	0	
4	0	0	0	0	0	508	510	509	31	0	
5	0	0	0	0	0	505	505	509	31	0	
6	0	0	0	0	1	505	499	511	31	0	
7	0	0	0	0	0	507	508	509	31	0	
8	0	0	0	0	0	512	513	508	31	0	
9	0	0	0	0	0	511	527	508	31	0	
10	0	0	0	0	0	509	538	509	31	0	
11	0	0	0	0	0	509	526	511	31	0	
12	0	0	0	0	0	506	511	508	31	0	
13	0	0	0	0	0	503	502	508	31	0	
14	0	0	0	0	2	508	501	509	31	0	
15	0	0	0	0	0	511	507	509	31	0	
0	0	0	0	0	0	512	497	511	32	0	
1	0	0	0	0	0	504	495	509	32	0	
2	0	0	0	0	0	502	503	510	32	0	
3	0	0	0	0	0	497	520	509	32	0	
4	0	0	0	0	0	498	540	508	31	0	
5	0	0	0	0	0	500	542	510	31	0	
6	0	0	0	0	3	502	521	509	31	0	
7	0	0	0	0	0	502	508	510	31	0	
8	0	0	0	0	0	499	497	508	31	0	
9	0	0	0	0	0	495	493	509	31	0	
10	0	0	0	0	0	497	491	511	32	0	
11	0	0	0	0	0	506	492	510	32	0	
12	0	0	0	0	0	518	505	509	32	0	
13	0	0	0	0	0	527	524	510	31	0	
14	0	0	0	0	2	523	540	508	31	0	
15	0	0	0	0	0	519	534	509	31	0	
0	0	0	0	0	0	512	517	510	31	0	
1	0	0	0	0	0	504	505	509	31	0	
2	0	0	0	0	0	499	499	510	31	0	
3	0	0	0	0	0	494	502	509	31	0	
4	0	0	0	0	0	492	511	511	32	0	
5	0	0	0	0	0	493	518	509	31	0	
6	0	0	0	0	2	498	518	509	31	0	
7	0	0	0	0	0	501	507	510	32	0	
8	0	0	0	0	0	506	505	508	32	0	
9	0	0	0	0	0	510	510	509	32	0	
10	0	0	0	0	0	508	519	508	31	0	
11	0	0	0	0	0	504	527	511	31	0	
12	0	0	0	0	0	504	522	509	31	0	
13	0	0	0	0	0	505	510	509	31	0	
14	0	0	0	0	2	508	501	509	31	0	
15	0	0	0	0	0	508	497	510	31	0	
0	0	0	0	0	0	508	498	509	32	0	
1	0	0	0	0	0	506	504	510	32	0	
2	0	0	0	0	0	502	515	508	32	0	
3	0	0	0	0	0	507	524	510	31	0	
4	0	0	0	0	0	507	520	509	31	0	
5	0	0	0	0	0	505	511	509	31	0	
6	0	0	0	0	2	505	505	510	31	0	
7	0	0	0	0	0	501	506	508	31	0	
8	0	0	0	0	0	500	505	509	31	0	
9	0	0	0	0	0	500	512	510	31	0	
10	0	0	0	0	0	498	513	509	31	0	
11	0	0	0	0	0	499	515	511	31	0	
12	0	0	0	0	0	500	518	508	31	0	
13	0	0	0	0	0	512	522	508	31	0	
14	0	0	0	0	2	521	523	511	31	0	
15	0	0	0	0	0	515	504	510	31	0	
0	0	0	0	0	0	512	496	509	31	0	
1	0	0	0	0	0	504	500	508	32	0	
2	0	0	0	0	0	497	507	509	32	0	
3	0	0	0	0	0	499	528	512	32	0	
4	0	0	0	0	0	504	540	508	31	0	
5	0	0	0	0	0	512	531	508	31	0	
6	0	0	0	0	2	516	524	509	31	0	
7	0	0	0	0	0	512	518	510	31	0	
8	0	0	0	0	0	507	509	508	31	0	
9	0	0	0	0	0	508	505	509	31	0	
10	0	0	0	0	0	506	503	509	31	0	
11	0	0	0	0	0	504	503	509	31	0	
12	0	0	0	0	0	500	505	510	31	0	
13	0	0	0	0	0	500	507	508	31	0	
14	0	0	0	0	2	498	505	508	31	0	
15	0	0	0	0	0	499	507	510	31	0	
0	0	0	0	0	0	501	504	510	32	0	
1	0	0	0	0	0	500	500	508	32	0	
2	0	0	0	0	0	499	510	511	32	0	
3	0	0	0	0	0	501	516	509	32	0	
4	0	0	0	0	0	502	523	509	31	0	
5	0	0	0	0	0	504	521	508	31	0	
6	0	0	0	0	2	508	519	510	31	0	
7	0	0	0	0	0	511	515	508	31	0	
8	0	0	0	0	0	511	512	510	31	0	
9	0	0	0	0	0	513	516	510	31	0	
10	0	0	0	0	0	510	512	508	31	0	
11	0	0	0	0	0	507	511	512	31	0	
12	0	0	0	0	0	503	503	508	31	0	
13	0	0	0	0	0	497	496	508	31	0	
14	0	0	0	0	2	499	499	508	32	0	
15	0	0	0	0	0	501	506	508	31	0	
0	0	0	0	0	0	504	520	510	31	0	
1	0	0	0	0	0	509	536	508	31	0	
2	0	0	0	0	0	514	534	510	31	0	
3	0	0	0	0	0	515	520	508	31	0	
4	0	0	0	0	0	509	505	508	31	0	
5	0	0	0	0	0	505	497	511	31	0	
6	0	0	0	0	1	500	495	509	32	0	
7	0	0	0	0	0	496	494	509	32	0	
8	0	0	0	0	0	495	509	510	32	0	
9	0	0	0	0	0	502	519	508	32	0	
10	0	0	0	0	0	508	527	510	31	0	
11	0	0	0	0	0	508	519	509	31	0	
12	0	0	0	0	0	506	510	509	31	0	
13	0	0	0	0	0	511	511	508	31	0	
14	0	0	0	0	1	509	515	508	31	0	
15	0	0	0	0	0	507	512	510	31	0	
0	0	0	0	0	0	505	512	510	31	0	
1	0	0	0	0	0	503	514	509	31	0	
2	0	0	0	0	0	501	515	509	32	0	
3	0	0	0	0	0	502	510	508	31	0	
4	0	0	0	0	0	503	510	511	31	0	
5	0	0	0	0	0	504	514	510	31	0	
6	0	0	0	0	1	507	513	509	31	0	
7	0	0	0	0	0	507	511	509	31	0	
8	0	0	0	0	0	505	511	509	31	0	
9	0	0	0	0	0	507	506	510	31	0	
10	0	0	0	0	0	505	507	511	31	0	
11	0	0	0	0	0	503	507	508	32	0	
12	0	0	0	0	0	502	505	509	32	0	
13	0	0	0	0	0	501	505	508	32	0	
14	0	0	0	0	2	500	508	509	32	0	
15	0	0	0	0	0	501	516	511	32	0	
0	0	0	0	0	0	504	519	509	31	0	
1	0	0	0	0	0	508	527	509	31	0	
2	0	0	0	0	0	514	534	509	31	0	
3	0	0	0	0	0	519	536	511	31	0	
4	0	0	0	0	0	514	527	509	31	0	
5	0	0	0	0	0	514	511	510	31	0	
6	0	0	0	0	2	509	502	509	31	0	
7	0	0	0	0	0	504	498	508	31	0	
8	0	0	0	0	0	499	502	510	32	0	
9	0	0	0	0	0	497	503	508	32	0	
10	0	0	0	0	0	499	505	509	32	0	
11	0	0	0	0	0	500	508	510	32	0	
12	0	0	0	0	0	499	508	509	32	0	
13	0	0	0	0	0	499	507	509	32	0	
14	0	0	0	0	2	502	505	511	31	0	
15	0	0	0	0	0	501	504	510	32	0	
0	0	0	0	0	0	503	507	510	32	0	
1	0	0	0	0	0	503	511	510	32	0	
2	0	0	0	0	0	507	512	509	32	0	
3	0	0	0	0	0	507	519	507	31	0	
4	0	0	0	0	0	507	524	511	31	0	
5	0	0	0	0	0	507	520	509	31	0	
6	0	0	0	0	2	505	512	508	31	0	
7	0	0	0	0	0	504	503	508	31	0	
8	0	0	0	0	0	504	498	510	31	0	
9	0	0	0	0	0	504	504	509	31	0	
10	0	0	0	0	0	508	516	509	31	0	
11	0	0	0	0	0	507	536	508	31	0	
12	0	0	0	0	0	503	537	511	31	0	
13	0	0	0	0	0	502	523	508	31	0	
14	0	0	0	0	2	505	506	509	31	0	
15	0	0	0	0	0	510	489	509	32	0	
0	0	0	0	0	0	506	497	509	32	0	
1	0	0	0	0	0	511	515	510	31	0	
2	0	0	0	0	0	513	522	510	31	0	
3	0	0	0	0	0	510	523	510	31	0	
4	0	0	0	0	0	505	516	509	31	0	
5	0	0	0	0	0	508	509	508	32	0	
6	0	0	0	0	2	504	504	510	32	0	
7	0	0	0	0	0	500	506	510	31	0	
8	0	0	0	0	0	496	510	511	31	0	
9	0	0	0	0	0	497	510	510	31	0	
10	0	0	0	0	0	502	508	508	31	0	
11	0	0	0	0	0	504	519	509	31	0	
12	0	0	0	0	0	505	527	511	31	0	
13	0	0	0	0	0	508	517	510	31	0	
14	0	0	0	0	2	508	508	509	31	0	
15	0	0	0	0	0	506	506	507	31	0	
0	0	0	0	0	0	507	508	510	32	0	
1	0	0	0	0	0	508	511	509	31	0	
2	0	0	0	0	0	505	511	509	31	0	
3	0	0	0	0	0	507	515	509	31	0	
4	0	0	0	0	0	506	510	508	31	0	
5	0	0	0	0	0	499	502	509	32	0	
6	0	0	0	0	2	501	494	510	32	0	
7	0	0	0	0	0	504	498	510	32	0	
8	0	0	0	0	0	510	506	509	31	0	
9	0	0	0	0	0	504	530	509	31	0	
10	0	0	0	0	0	504	543	510	31	0	
11	0	0	0	0	0	505	529	510	31	0	
12	0	0	0	0	0	510	512	509	31	0	
13	0	0	0	0	0	515	509	509	31	0	
14	0	0	0	0	3	516	508	508	31	0	
15	0	0	0	0	0	510	510	508	31	0	
0	0	0	0	0	0	501	508	511	31	0	
1	0	0	0	0	0	499	509	510	31	0	
2	0	0	0	0	0	499	511	508	32	0	
3	0	0	0	0	0	497	508	508	31	0	
4	0	0	0	0	0	500	510	509	31	0	
5	0	0	0	0	0	502	508	511	31	0	
6	0	0	0	0	2	503	516	509	31	0	
7	0	0	0	0	0	503	518	510	31	0	
8	0	0	0	0	0	504	515	509	31	0	
9	0	0	0	0	0	504	510	509	31	0	
10	0	0	0	0	0	505	510	512	31	0	
11	0	0	0	0	0	506	507	509	31	0	
12	0	0	0	0	0	507	509	509	31	0	
13	0	0	0	0	0	508	512	508	31	0	
14	0	0	0	0	2	509	510	511	31	0	
15	0	0	0	0	0	508	505	508	32	0	
0	0	0	0	0	0	505	510	509	32	0	
1	0	0	0	0	0	506	518	510	31	0	
2	0	0	0	0	0	507	520	508	32	0	
3	0	0	0	0	0	508	524	508	31	0	
4	0	0	0	0	0	506	520	511	31	0	
5	0	0	0	0	0	508	512	508	31	0	
6	0	0	0	0	1	507	511	510	31	0	
7	0	0	0	0	0	505	508	510	31	0	
8	0	0	0	0	0	501	505	510	31	0	
9	0	0	0	0	0	503	507	508	31	0	
10	0	0	0	0	0	504	511	509	31	0	
11	0	0	0	0	0	505	516	508	32	0	
12	0	0	0	0	0	503	518	508	31	0	
13	0	0	0	0	0	503	517	510	31	0	
14	0	0	0	0	1	505	516	509	31	0	
15	0	0	0	0	0	504	515	509	31	0	
0	0	0	0	0	0	503	512	509	32	0	
1	0	0	0	0	0	507	510	509	32	0	
2	0	0	0	0	0	508	508	511	32	0	
3	0	0	0	0	0	510	505	508	32	0	
4	0	0	0	0	0	504	510	510	32	0	
5	0	0	0	0	0	501	512	510	31	0	
6	0	0	0	0	1	498	511	508	31	0	
7	0	0	0	0	0	499	508	510	31	0	
8	0	0	0	0	0	504	505	509	31	0	
9	0	0	0	0	0	503	505	509	32	0	
10	0	0	0	0	0	507	508	510	32	0	
11	0	0	0	0	0	508	514	509	31	0	
12	0	0	0	0	0	509	520	508	31	0	
13	0	0	0	0	0	512	517	511	31	0	
14	0	0	0	0	2	513	515	509	31	0	
15	0	0	0	0	0	509	512	509	31	0	
0	0	0	0	0	0	508	513	509	31	0	
1	0	0	0	0	0	508	513	508	31	0	
2	0	0	0	0	0	508	516	508	31	0	
3	0	0	0	0	0	507	514	510	31	0	
4	0	0	0	0	0	509	512	511	31	0	
5	0	0	0	0	0	503	514	508	31	0	
6	0	0	0	0	2	499	510	510	31	0	
7	0	0	0	0	0	499	507	508	31	0	
8	0	0	0	0	0	498	502	508	31	0	
9	0	0	0	0	0	503	505	510	31	0	
10	0	0	0	0	0	504	519	509	31	0	
11	0	0	0	0	0	507	536	510	31	0	
12	0	0	0	0	0	507	529	509	31	0	
13	0	0	0	0	0	505	523	509	31	0	
14	0	0	0	0	2	506	512	510	31	0	
15	0	0	0	0	0	504	503	509	32	0	
0	0	0	0	0	0	504	500	510	32	0	
1	0	0	0	0	0	506	500	509	32	0	
2	0	0	0	0	0	506	506	508	31	0	
3	0	0	0	0	0	504	513	510	31	0	
4	0	0	0	0	0	505	511	509	32	0	
5	0	0	0	0	0	506	515	510	31	0	
6	0	0	0	0	3	507	513	509	31	0	
7	0	0	0	0	0	507	511	509	31	0	
8	0	0	0	0	0	506	512	511	31	0	
9	0	0	0	0	0	507	515	510	31	0	
10	0	0	0	0	0	504	511	510	31	0	
11	0	0	0	0	0	503	512	509	31	0	
12	0	0	0	0	0	503	512	510	31	0	
13	0	0	0	0	0	504	511	509	31	0	
14	0	0	0	0	2	505	512	509	32	0	
15	0	0	0	0	0	503	511	509	32	0	
0	0	0	0	0	0	502	515	509	31	0	
1	0	0	0	0	0	504	511	510	32	0	
2	0	0	0	0	0	507	512	510	32	0	
3	0	0	0	0	0	506	511	508	31	0	
4	0	0	0	0	0	504	511	510	31	0	
5	0	0	0	0	0	507	511	509	31	0	
6	0	0	0	0	2	508	513	509	32	0	
7	0	0	0	0	0	507	510	509	31	0	
8	0	0	0	0	0	505	509	508	31	0	
9	0	0	0	0	0	502	513	508	31	0	
10	0	0	0	0	0	503	510	509	31	0	
11	0	0	0	0	0	503	511	510	31	0	
12	0	0	0	0	0	505	512	510	32	0	
13	0	0	0	0	0	504	511	509	31	0	
14	0	0	0	0	2	504	511	509	31	0	
15	0	0	0	0	0	507	502	509	32	0	
0	0	0	0	0	0	504	499	508	32	0	
1	0	0	0	0	0	507	504	509	32	0	
2	0	0	0	0	0	507	513	508	32	0	
3	0	0	0	0	0	505	526	509	31	0	
4	0	0	0	0	0	506	545	508	31	0	
5	0	0	0	0	0	505	533	511	31	0	
6	0	0	0	0	2	503	515	509	31	0	
7	0	0	0	0	0	501	505	508	31	0	
8	0	0	0	0	0	504	504	511	31	0	
9	0	0	0	0	0	509	503	509	31	0	
10	0	0	0	0	0	510	508	510	31	0	
11	0	0	0	0	0	513	513	510	31	0	
12	0	0	0	0	0	509	513	508	31	0	
13	0	0	0	0	0	505	514	509	31	0	
14	0	0	0	0	2	501	516	510	31	0	
15	0	0	0	0	0	500	515	509	31	0	
0	0	0	0	0	0	503	515	510	31	0	
1	0	0	0	0	0	502	505	508	31	0	
2	0	0	0	0	0	500	502	510	32	0	
3	0	0	0	0	0	505	502	509	32	0	
4	0	0	0	0	0	510	510	509	32	0	
5	0	0	0	0	0	512	515	509	32	0	
6	0	0	0	0	3	513	517	507	32	0	
7	0	0	0	0	0	507	515	510	31	0	
8	0	0	0	0	0	502	512	510	31	0	
9	0	0	0	0	0	500	511	510	31	0	
10	0	0	0	0	0	496	508	510	31	0	
11	0	0	0	0	0	495	509	508	31	0	
12	0	0	0	0	0	496	509	508	31	0	
13	0	0	0	0	0	502	509	510	32	0	
14	0	0	0	0	2	505	512	510	32	0	
15	0	0	0	0	0	505	520	509	32	0	
0	0	0	0	0	0	508	516	509	31	0	
1	0	0	0	0	0	508	510	509	31	0	
2	0	0	0	0	0	505	509	508	31	0	
3	0	0	0	0	0	505	508	511	31	0	
4	0	0	0	0	0	502	508	510	32	0	
5	0	0	0	0	0	502	511	509	31	0	
6	0	0	0	0	1	509	511	508	31	0	
7	0	0	0	0	0	514	512	508	31	0	
8	0	0	0	0	0	512	515	510	31	0	
9	0	0	0	0	0	510	515	510	31	0	
10	0	0	0	0	0	508	511	509	31	0	
11	0	0	0	0	0	510	514	509	31	0	
12	0	0	0	0	0	504	512	508	31	0	
13	0	0	0	0	0	504	513	511	31	0	
14	0	0	0	0	1	504	513	508	31	0	
15	0	0	0	0	0	505	514	509	31	0	
0	0	0	0	0	0	504	517	510	31	0	
1	0	0	0	0	0	500	518	507	31	0	
2	0	0	0	0	0	502	515	509	31	0	
3	0	0	0	0	0	506	512	510	31	0	
4	0	0	0	0	0	508	513	508	31	0	
5	0	0	0	0	0	507	508	510	31	0	
6	0	0	0	0	3	503	511	508	31	0	
7	0	0	0	0	0	497	511	509	32	0	
8	0	0	0	0	0	499	513	510	32	0	
9	0	0	0	0	0	501	510	509	32	0	
10	0	0	0	0	0	512	508	508	32	0	
11	0	0	0	0	0	514	510	511	32	0	
12	0	0	0	0	0	513	508	510	31	0	
13	0	0	0	0	0	508	510	509	31	0	
14	0	0	0	0	2	504	513	510	31	0	
15	0	0	0	0	0	502	515	510	31	0	
0	0	0	0	0	0	502	515	508	31	0	
1	0	0	0	0	0	500	512	508	31	0	
2	0	0	0	0	0	505	512	510	31	0	
3	0	0	0	0	0	506	510	508	31	0	
4	0	0	0	0	0	505	513	511	31	0	
5	0	0	0	0	0	507	512	508	31	0	
6	0	0	0	0	2	504	513	510	31	0	
7	0	0	0	0	0	504	515	510	31	0	
8	0	0	0	0	0	505	515	509	31	0	
9	0	0	0	0	0	504	513	509	31	0	
10	0	0	0	0	0	500	511	511	31	0	
11	0	0	0	0	0	502	505	510	31	0	
12	0	0	0	0	0	499	504	511	31	0	
13	0	0	0	0	0	502	504	508	31	0	
14	0	0	0	0	2	508	506	509	31	0	
15	0	0	0	0	0	508	514	509	31	0	
0	0	0	0	0	0	509	525	509	31	0	
1	0	0	0	0	0	509	524	509	31	0	
2	0	0	0	0	0	510	520	508	31	0	
3	0	0	0	0	0	510	515	509	31	0	
4	0	0	0	0	0	507	514	510	32	0	
5	0	0	0	0	0	504	518	510	31	0	
6	0	0	0	0	2	506	518	509	31	0	
7	0	0	0	0	0	504	508	507	31	0	
8	0	0	0	0	0	502	505	509	31	0	
9	0	0	0	0	0	502	504	511	31	0	
10	0	0	0	0	0	501	509	510	31	0	
11	0	0	0	0	0	504	508	509	31	0	
12	0	0	0	0	0	505	511	508	31	0	
13	0	0	0	0	0	507	509	511	31	0	
14	0	0	0	0	2	501	507	509	31	0	
15	0	0	0	0	0	500	512	511	32	0	
0	0	0	0	0	0	499	515	509	32	0	
1	0	0	0	0	0	496	511	509	32	0	
2	0	0	0	0	0	503	509	511	32	0	
3	0	0	0	0	0	510	515	508	32	0	
4	0	0	0	0	0	519	516	509	31	0	
5	0	0	0	0	0	519	516	509	31	0	
6	0	0	0	0	3	512	515	510	31	0	
7	0	0	0	0	0	505	514	510	31	0	
8	0	0	0	0	0	501	514	508	32	0	
9	0	0	0	0	0	497	519	510	31	0	
10	0	0	0	0	0	501	515	508	31	0	
11	0	0	0	0	0	499	506	509	31	0	
12	0	0	0	0	0	507	504	510	31	0	
13	0	0	0	0	0	507	502	508	32	0	
14	0	0	0	0	2	508	504	509	32	0	
15	0	0	0	0	0	508	507	509	32	0	
0	0	0	0	0	0	507	511	508	32	0	
1	0	0	0	0	0	507	515	510	31	0	
2	0	0	0	0	0	508	516	508	31	0	
3	0	0	0	0	0	505	515	510	31	0	
4	0	0	0	0	0	503	513	510	31	0	
5	0	0	0	0	0	501	513	508	31	0	
6	0	0	0	0	2	499	513	511	31	0	
7	0	0	0	0	0	500	514	508	31	0	
8	0	0	0	0	0	504	511	509	31	0	
9	0	0	0	0	0	508	511	508	31	0	
10	0	0	0	0	0	509	508	509	31	0	
11	0	0	0	0	0	505	511	512	32	0	
12	0	0	0	0	0	507	513	508	32	0	
13	0	0	0	0	0	510	518	510	31	0	
14	0	0	0	0	2	512	518	510	31	0	
15	0	0	0	0	0	511	517	509	31	0	
0	0	0	0	0	0	506	513	510	31	0	
1	0	0	0	0	0	499	510	508	31	0	
2	0	0	0	0	0	501	508	508	31	0	
3	0	0	0	0	0	501	512	511	31	0	
4	0	0	0	0	0	505	519	508	31	0	
5	0	0	0	0	0	509	516	509	31	0	
6	0	0	0	0	2	506	514	511	31	0	
7	0	0	0	0	0	504	509	510	31	0	
8	0	0	0	0	0	497	504	510	31	0	
9	0	0	0	0	0	498	503	508	31	0	
10	0	0	0	0	0	500	504	508	31	0	
11	0	0	0	0	0	506	508	510	31	0	
12	0	0	0	0	0	504	511	510	32	0	
13	0	0	0	0	0	504	513	510	32	0	
14	0	0	0	0	1	504	516	509	32	0	
15	0	0	0	0	0	504	518	510	31	0	
0	0	0	0	0	0	509	515	509	32	0	
1	0	0	0	0	0	511	510	509	32	0	
2	0	0	0	0	0	508	511	510	31	0	
3	0	0	0	0	0	507	513	509	31	0	
4	0	0	0	0	0	508	515	510	31	0	
5	0	0	0	0	0	509	513	509	31	0	
6	0	0	0	0	1	507	516	511	31	0	
7	0	0	0	0	0	508	512	509	31	0	
8	0	0	0	0	0	505	511	511	31	0	
9	0	0	0	0	0	506	512	510	31	0	
10	0	0	0	0	0	503	515	508	31	0	
11	0	0	0	0	0	503	515	510	31	0	
12	0	0	0	0	0	500	513	509	31	0	
13	0	0	0	0	0	500	508	508	31	0	
14	0	0	0	0	1	503	515	509	32	0	
15	0	0	0	0	0	508	514	510	31	0	
0	0	0	0	0	0	507	515	508	31	0	
1	0	0	0	0	0	507	513	510	31	0	
2	0	0	0	0	0	502	510	508	31	0	
3	0	0	0	0	0	505	510	510	31	0	
4	0	0	0	0	0	512	508	508	31	0	
5	0	0	0	0	0	512	510	508	31	0	
6	0	0	0	0	2	507	510	509	31	0	
7	0	0	0	0	0	503	513	509	31	0	
8	0	0	0	0	0	499	515	510	31	0	
9	0	0	0	0	0	499	511	508	31	0	
10	0	0	0	0	0	500	512	510	31	0	
11	0	0	0	0	0	504	511	510	31	0	
12	0	0	0	0	0	510	510	510	31	0	
13	0	0	0	0	0	511	510	508	32	0	
14	0	0	0	0	2	509	514	511	32	0	
15	0	0	0	0	0	504	518	508	31	0	
0	0	0	0	0	0	500	514	509	31	0	
1	0	0	0	0	0	505	511	508	31	0	
2	0	0	0	0	0	505	511	510	31	0	
3	0	0	0	0	0	508	510	508	31	0	
4	0	0	0	0	0	510	510	510	31	0	
5	0	0	0	0	0	504	512	510	31	0	
6	0	0	0	0	2	507	515	510	31	0	
7	0	0	0	0	0	505	513	510	32	0	
8	0	0	0	0	0	504	513	508	31	0	
9	0	0	0	0	0	506	515	512	31	0	
10	0	0	0	0	0	506	513	510	31	0	
11	0	0	0	0	0	503	508	508	31	0	
12	0	0	0	0	0	503	508	511	31	0	
13	0	0	0	0	0	505	508	509	31	0	
14	0	0	0	0	2	502	513	509	32	0	
15	0	0	0	0	0	500	516	508	32	0	
0	0	0	0	0	0	502	513	508	32	0	
1	0	0	0	0	0	504	511	508	32	0	
2	0	0	0	0	0	505	511	508	32	0	
3	0	0	0	0	0	510	512	511	31	0	
4	0	0	0	0	0	508	512	510	31	0	
5	0	0	0	0	0	504	508	510	32	0	
6	0	0	0	0	2	502	511	509	32	0	
7	0	0	0	0	0	503	512	509	31	0	
8	0	0	0	0	0	504	512	509	31	0	
9	0	0	0	0	0	504	514	510	31	0	
10	0	0	0	0	0	504	513	508	31	0	
11	0	0	0	0	0	507	513	509	31	0	
12	0	0	0	0	0	503	512	510	31	0	
13	0	0	0	0	0	507	510	510	31	0	
14	0	0	0	0	2	503	510	510	31	0	
15	0	0	0	0	0	503	515	508	31	0	
0	0	0	0	0	0	504	515	510	31	0	
1	0	0	0	0	0	507	511	510	31	0	
2	0	0	0	0	0	510	510	509	31	0	
3	0	0	0	0	0	509	508	510	31	0	
4	0	0	0	0	0	504	509	508	31	0	
5	0	0	0	0	0	504	510	508	32	0	
6	0	0	0	0	2	503	510	510	31	0	
7	0	0	0	0	0	502	512	509	32	0	
8	0	0	0	0	0	507	512	510	31	0	
9	0	0	0	0	0	510	512	508	31	0	
10	0	0	0	0	0	512	510	509	32	0	
11	0	0	0	0	0	511	511	511	31	0	
12	0	0	0	0	0	506	512	510	31	0	
13	0	0	0	0	0	501	513	509	31	0	
14	0	0	0	0	2	498	513	509	31	0	
15	0	0	0	0	0	504	521	509	31	0	
0	0	0	0	0	0	504	519	510	31	0	
1	0	0	0	0	0	507	515	508	31	0	
2	0	0	0	0	0	506	511	510	31	0	
3	0	0	0	0	0	505	509	509	31	0	
4	0	0	0	0	0	507	513	511	31	0	
5	0	0	0	0	0	507	515	508	31	0	
6	0	0	0	0	2	505	514	508	31	0	
7	0	0	0	0	0	506	514	510	31	0	
8	0	0	0	0	0	508	515	509	31	0	
9	0	0	0	0	0	510	512	509	31	0	
10	0	0	0	0	0	508	510	511	31	0	
11	0	0	0	0	0	503	507	510	31	0	
12	0	0	0	0	0	499	507	509	31	0	
13	0	0	0	0	0	502	508	509	31	0	
14	0	0	0	0	2	504	510	509	31	0	
15	0	0	0	0	0	504	510	508	31	0	
0	0	0	0	0	0	502	507	508	31	0	
1	0	0	0	0	0	502	510	508	32	0	
2	0	0	0	0	0	503	511	508	32	0	
3	0	0	0	0	0	503	515	510	31	0	
4	0	0	0	0	0	503	514	508	31	0	
5	0	0	0	0	0	508	513	510	31	0	
6	0	0	0	0	2	506	510	510	31	0	
7	0	0	0	0	0	510	512	508	31	0	
8	0	0	0	0	0	509	514	509	31	0	
9	0	0	0	0	0	504	511	510	31	0	
10	0	0	0	0	0	502	511	509	31	0	
11	0	0	0	0	0	502	512	509	31	0	
12	0	0	0	0	0	502	511	509	31	0	
13	0	0	0	0	0	501	514	510	31	0	
14	0	0	0	0	1	502	516	508	31	0	
15	0	0	0	0	0	505	515	511	31	0	
0	0	0	0	0	0	507	511	508	31	0	
1	0	0	0	0	0	508	511	510	31	0	
2	0	0	0	0	0	508	513	510	31	0	
3	0	0	0	0	0	513	512	509	31	0	
4	0	0	0	0	0	511	515	508	32	0	
5	0	0	0	0	0	507	514	509	31	0	
6	0	0	0	0	1	502	515	509	31	0	
7	0	0	0	0	0	502	514	511	31	0	
8	0	0	0	0	0	503	511	508	31	0	
9	0	0	0	0	0	504	513	509	31	0	
10	0	0	0	0	0	504	512	509	31	0	
11	0	0	0	0	0	504	513	509	31	0	
12	0	0	0	0	0	504	512	511	31	0	
13	0	0	0	0	0	504	511	508	31	0	
14	0	0	0	0	1	508	508	509	31	0	
15	0	0	0	0	0	507	507	510	31	0	
0	0	0	0	0	0	504	510	508	31	0	
1	0	0	0	0	0	503	508	510	31	0	
2	0	0	0	0	0	505	511	509	31	0	
3	0	0	0	0	0	506	515	510	31	0	
4	0	0	0	0	0	504	518	509	31	0	
5	0	0	0	0	0	502	521	508	31	0	
6	0	0	0	0	2	501	523	510	31	0	
7	0	0	0	0	0	499	520	508	31	0	
8	0	0	0	0	0	504	508	509	31	0	
9	0	0	0	0	0	506	504	510	31	0	
10	0	0	0	0	0	507	504	508	31	0	
11	0	0	0	0	0	504	505	510	32	0	
12	0	0	0	0	0	507	505	508	32	0	
13	0	0	0	0	0	509	505	510	32	0	
14	0	0	0	0	2	510	507	510	31	0	
15	0	0	0	0	0	508	512	510	31	0	
0	0	0	0	0	0	508	514	510	31	0	
1	0	0	0	0	0	507	517	510	31	0	
2	0	0	0	0	0	507	522	509	31	0	
3	0	0	0	0	0	503	522	510	31	0	
4	0	0	0	0	0	504	515	510	31	0	
5	0	0	0	0	0	506	512	510	31	0	
6	0	0	0	0	2	503	511	508	31	0	
7	0	0	0	0	0	504	510	509	31	0	
8	0	0	0	0	0	504	510	509	31	0	
9	0	0	0	0	0	508	512	508	31	0	
10	0	0	0	0	0	509	512	511	32	0	
11	0	0	0	0	0	508	512	510	31	0	
12	0	0	0	0	0	504	514	510	31	0	
13	0	0	0	0	0	505	515	509	31	0	
14	0	0	0	0	2	504	515	510	31	0	
15	0	0	0	0	0	502	513	510	31	0	
0	0	0	0	0	0	498	512	507	31	0	
1	0	0	0	0	0	496	510	511	31	0	
2	0	0	0	0	0	497	505	508	31	0	
3	0	0	0	0	0	498	503	509	32	0	
4	0	0	0	0	0	501	504	510	32	0	
5	0	0	0	0	0	503	508	508	32	0	
6	0	0	0	0	2	508	513	510	31	0	
7	0	0	0	0	0	506	518	509	32	0	
8	0	0	0	0	0	505	517	510	31	0	
9	0	0	0	0	0	505	513	511	32	0	
10	0	0	0	0	0	508	511	508	31	0	
11	0	0	0	0	0	511	515	508	31	0	
12	0	0	0	0	0	510	515	509	31	0	
13	0	0	0	0	0	506	512	508	31	0	
14	0	0	0	0	2	510	513	511	31	0	
15	0	0	0	0	0	509	513	509	31	0	
0	0	0	0	0	0	507	512	509	32	0	
1	0	0	0	0	0	503	509	509	32	0	
2	0	0	0	0	0	503	512	510	31	0	
3	0	0	0	0	0	504	511	510	31	0	
4	0	0	0	0	0	503	513	509	32	0	
5	0	0	0	0	0	505	515	509	31	0	
6	0	0	0	0	2	510	515	508	31	0	
7	0	0	0	0	0	510	515	508	31	0	
8	0	0	0	0	0	507	510	509	31	0	
9	0	0	0	0	0	502	507	511	31	0	
10	0	0	0	0	0	499	508	509	31	0	
11	0	0	0	0	0	500	511	509	31	0	
12	0	0	0	0	0	501	513	508	31	0	
13	0	0	0	0	0	501	515	510	31	0	
14	0	0	0	0	3	507	512	508	31	0	
15	0	0	0	0	0	507	509	509	31	0	
0	0	0	0	0	0	511	507	509	32	0	
1	0	0	0	0	0	508	511	508	32	0	
2	0	0	0	0	0	505	515	510	32	0	
3	0	0	0	0	0	506	513	508	32	0	
4	0	0	0	0	0	506	512	509	31	0	
5	0	0	0	0	0	506	512	510	31	0	
6	0	0	0	0	3	507	509	509	31	0	
7	0	0	0	0	0	503	510	511	31	0	
8	0	0	0	0	0	501	511	508	31	0	
9	0	0	0	0	0	499	511	510	32	0	
10	0	0	0	0	0	500	513	510	32	0	
11	0	0	0	0	0	504	513	508	31	0	
12	0	0	0	0	0	506	513	510	31	0	
13	0	0	0	0	0	509	514	510	31	0	
14	0	0	0	0	2	507	514	509	31	0	
15	0	0	0	0	0	503	514	510	31	0	
0	0	0	0	0	0	502	513	509	31	0	
1	0	0	0	0	0	504	514	509	31	0	
2	0	0	0	0	0	509	512	510	31	0	
3	0	0	0	0	0	509	513	510	31	0	
4	0	0	0	0	0	505	513	510	31	0	
5	0	0	0	0	0	504	512	509	31	0	
6	0	0	0	0	2	503	512	510	31	0	
7	0	0	0	0	0	504	514	510	32	0	
8	0	0	0	0	0	507	511	510	32	0	
9	0	0	0	0	0	505	511	509	32	0	
10	0	0	0	0	0	507	512	508	32	0	
11	0	0	0	0	0	505	513	509	32	0	
12	0	0	0	0	0	508	513	510	31	0	
13	0	0	0	0	0	508	515	510	31	0	
14	0	0	0	0	1	505	514	508	31	0	
15	0	0	0	0	0	503	513	508	31	0	
0	0	0	0	0	0	505	511	509	31	0	
1	0	0	0	0	0	505	510	510	31	0	
2	0	0	0	0	0	505	508	509	31	0	
3	0	0	0	0	0	504	508	509	31	0	
4	0	0	0	0	0	503	511	508	31	0	
5	0	0	0	0	0	505	512	508	31	0	
6	0	0	0	0	1	505	510	511	31	0	
7	0	0	0	0	0	509	511	509	31	0	
8	0	0	0	0	0	508	514	510	31	0	
9	0	0	0	0	0	505	516	508	31	0	
10	0	0	0	0	0	504	512	511	31	0	
11	0	0	0	0	0	502	508	508	32	0	
12	0	0	0	0	0	500	507	510	31	0	
13	0	0	0	0	0	499	508	510	32	0	
14	0	0	0	0	3	504	508	509	32	0	
15	0	0	0	0	0	507	512	510	31	0	
0	0	0	0	0	0	507	513	508	31	0	
1	0	0	0	0	0	507	514	510	31	0	
2	0	0	0	0	0	506	513	510	31	0	
3	0	0	0	0	0	505	512	509	31	0	
4	0	0	0	0	0	505	512	511	31	0	
5	0	0	0	0	0	504	513	508	31	0	
6	0	0	0	0	2	504	511	509	31	0	
7	0	0	0	0	0	504	511	510	31	0	
8	0	0	0	0	0	503	511	508	31	0	
9	0	0	0	0	0	505	513	509	31	0	
10	0	0	0	0	0	503	511	510	31	0	
11	0	0	0	0	0	505	513	509	31	0	
12	0	0	0	0	0	506	515	510	31	0	
13	0	0	0	0	0	507	513	508	32	0	
14	0	0	0	0	2	503	511	510	32	0	
15	0	0	0	0	0	504	510	509	32	0	
0	0	0	0	0	0	504	511	510	31	0	
1	0	0	0	0	0	504	512	510	31	0	
2	0	0	0	0	0	500	509	509	31	0	
3	0	0	0	0	0	501	511	510	31	0	
4	0	0	0	0	0	501	511	508	31	0	
5	0	0	0	0	0	504	514	509	31	0	
6	0	0	0	0	2	510	515	511	31	0	
7	0	0	0	0	0	511	515	510	31	0	
8	0	0	0	0	0	510	513	510	31	0	
9	0	0	0	0	0	511	513	509	31	0	
10	0	0	0	0	0	507	512	508	31	0	
11	0	0	0	0	0	501	512	510	31	0	
12	0	0	0	0	0	501	508	510	31	0	
13	0	0	0	0	0	500	512	510	31	0	
14	0	0	0	0	3	503	515	507	31	0	
15	0	0	0	0	0	507	511	509	31	0	
0	0	0	0	0	0	506	512	510	32	0	
1	0	0	0	0	0	505	515	509	31	0	
2	0	0	0	0	0	506	519	508	31	0	
3	0	0	0	0	0	507	515	512	31	0	
4	0	0	0	0	0	510	515	509	31	0	
5	0	0	0	0	0	507	512	511	31	0	
6	0	0	0	0	2	506	509	508	32	0	
7	0	0	0	0	0	504	508	511	31	0	
8	0	0	0	0	0	504	508	509	31	0	
9	0	0	0	0	0	504	508	509	32	0	
10	0	0	0	0	0	506	508	509	31	0	
11	0	0	0	0	0	507	512	508	31	0	
12	0	0	0	0	0	508	509	510	32	0	
13	0	0	0	0	0	505	509	508	31	0	
14	0	0	0	0	3	505	509	510	31	0	
15	0	0	0	0	0	503	512	508	31	0	
0	0	0	0	0	0	500	512	508	31	0	
1	0	0	0	0	0	500	510	511	31	0	
2	0	0	0	0	0	502	511	508	31	0	
3	0	0	0	0	0	500	511	509	31	0	
4	0	0	0	0	0	500	512	510	31	0	
5	0	0	0	0	0	503	514	509	31	0	
6	0	0	0	0	2	505	515	510	32	0	
7	0	0	0	0	0	509	512	509	32	0	
8	0	0	0	0	0	508	514	507	32	0	
9	0	0	0	0	0	507	516	510	31	0	
10	0	0	0	0	0	503	517	508	31	0	
11	0	0	0	0	0	504	515	511	31	0	
12	0	0	0	0	0	507	512	508	31	0	
13	0	0	0	0	0	510	507	510	31	0	
14	0	0	0	0	2	509	509	510	31	0	
15	0	0	0	0	0	504	511	508	31	0	
0	0	0	0	0	0	505	513	509	31	0	
1	0	0	0	0	0	506	513	508	32	0	
2	0	0	0	0	0	508	513	510	31	0	
3	0	0	0	0	0	511	514	510	31	0	
4	0	0	0	0	0	511	514	508	31	0	
5	0	0	0	0	0	509	515	510	31	0	
6	0	0	0	0	2	505	511	509	31	0	
7	0	0	0	0	0	504	510	510	31	0	
8	0	0	0	0	0	503	510	509	31	0	
9	0	0	0	0	0	502	511	509	31	0	
10	0	0	0	0	0	503	511	510	31	0	
11	0	0	0	0	0	502	510	510	31	0	
12	0	0	0	0	0	503	510	510	31	0	
13	0	0	0	0	0	503	511	508	31	0	
14	0	0	0	0	2	503	508	507	31	0	
15	0	0	0	0	0	505	511	508	31	0	
0	0	0	0	0	0	505	512	509	31	0	
1	0	0	0	0	0	505	512	509	31	0	
2	0	0	0	0	0	506	510	510	31	0	
3	0	0	0	0	0	502	510	510	32	0	
4	0	0	0	0	0	501	515	509	31	0	
5	0	0	0	0	0	503	514	510	31	0	
6	0	0	0	0	1	505	513	510	31	0	
7	0	0	0	0	0	507	514	510	31	0	
8	0	0	0	0	0	507	513	508	31	0	
9	0	0	0	0	0	507	516	508	31	0	
10	0	0	0	0	0	505	514	510	31	0	
11	0	0	0	0	0	507	514	510	31	0	
12	0	0	0	0	0	511	511	509	31	0	
13	0	0	0	0	0	508	510	509	31	0	
14	0	0	0	0	1	510	510	510	32	0	
15	0	0	0	0	0	507	511	508	31	0	
0	0	0	0	0	0	505	509	509	31	0	
1	0	0	0	0	0	505	508	510	31	0	
2	0	0	0	0	0	506	508	510	31	0	
3	0	0	0	0	0	504	509	510	31	0	
4	0	0	0	0	0	501	512	508	31	0	
5	0	0	0	0	0	505	517	509	31	0	
6	0	0	0	0	1	505	518	511	31	0	
7	0	0	0	0	0	506	516	508	31	0	
8	0	0	0	0	0	504	513	511	31	0	
9	0	0	0	0	0	501	511	507	31	0	
10	0	0	0	0	0	504	510	510	32	0	
11	0	0	0	0	0	505	508	510	32	0	
12	0	0	0	0	0	506	508	508	32	0	
13	0	0	0	0	0	505	508	509	32	0	
14	0	0	0	0	2	502	511	511	31	0	
15	0	0	0	0	0	505	517	509	31	0	
0	0	0	0	0	0	505	519	510	31	0	
1	0	0	0	0	0	500	518	508	31	0	
2	0	0	0	0	0	502	514	509	31	0	
3	0	0	0	0	0	502	514	509	31	0	
4	0	0	0	0	0	501	510	510	31	0	
5	0	0	0	0	0	503	508	509	31	0	
6	0	0	0	0	2	502	505	507	31	0	
7	0	0	0	0	0	509	505	509	32	0	
8	0	0	0	0	0	512	508	510	31	0	
9	0	0	0	0	0	508	510	511	31	0	
10	0	0	0	0	0	507	514	509	31	0	
11	0	0	0	0	0	511	514	509	31	0	
12	0	0	0	0	0	509	512	510	31	0	
13	0	0	0	0	0	505	512	508	32	0	
14	0	0	0	0	2	503	510	510	32	0	
15	0	0	0	0	0	505	511	510	32	0	
0	0	0	0	0	0	506	512	509	32	0	
1	0	0	0	0	0	508	514	510	32	0	
2	0	0	0	0	0	504	517	508	31	0	
3	0	0	0	0	0	504	515	511	31	0	
4	0	0	0	0	0	503	515	510	31	0	
5	0	0	0	0	0	501	515	508	31	0	
6	0	0	0	0	2	504	512	511	31	0	
7	0	0	0	0	0	504	511	508	31	0	
8	0	0	0	0	0	504	512	508	31	0	
9	0	0	0	0	0	505	513	508	31	0	
10	0	0	0	0	0	506	513	508	31	0	
11	0	0	0	0	0	507	510	510	31	0	
12	0	0	0	0	0	505	509	508	31	0	
13	0	0	0	0	0	506	511	509	31	0	
14	0	0	0	0	2	507	512	512	31	0	
15	0	0	0	0	0	505	512	510	31	0	
0	0	0	0	0	0	504	515	509	31	0	
1	0	0	0	0	0	503	513	508	31	0	
2	0	0	0	0	0	505	512	510	31	0	
3	0	0	0	0	0	507	512	510	31	0	
4	0	0	0	0	0	507	511	509	31	0	
5	0	0	0	0	0	504	511	509	32	0	
6	0	0	0	0	2	504	513	510	32	0	
7	0	0	0	0	0	504	513	509	31	0	
8	0	0	0	0	0	502	512	510	31	0	
9	0	0	0	0	0	499	512	508	31	0	
10	0	0	0	0	0	502	509	510	31	0	
11	0	0	0	0	0	503	511	509	31	0	
12	0	0	0	0	0	505	511	509	32	0	
13	0	0	0	0	0	505	512	510	31	0	
14	0	0	0	0	2	506	513	509	31	0	
15	0	0	0	0	0	507	515	510	31	0	
0	0	0	0	0	0	508	516	509	31	0	
1	0	0	0	0	0	506	515	510	31	0	
2	0	0	0	0	0	507	513	511	31	0	
3	0	0	0	0	0	508	511	508	31	0	
4	0	0	0	0	0	506	509	510	32	0	
5	0	0	0	0	0	506	510	508	32	0	
6	0	0	0	0	2	505	510	509	31	0	
7	0	0	0	0	0	499	511	510	31	0	
8	0	0	0	0	0	497	511	507	31	0	
9	0	0	0	0	0	504	511	510	31	0	
10	0	0	0	0	0	508	509	510	32	0	
11	0	0	0	0	0	507	508	510	32	0	
12	0	0	0	0	0	506	512	509	32	0	
13	0	0	0	0	0	507	514	508	31	0	
14	0	0	0	0	2	506	513	510	31	0	
15	0	0	0	0	0	505	515	509	31	0	
0	0	0	0	0	0	505	510	510	31	0	
1	0	0	0	0	0	506	510	510	32	0	
2	0	0	0	0	0	504	513	508	31	0	
3	0	0	0	0	0	507	510	509	32	0	
4	0	0	0	0	0	506	511	510	31	0	
5	0	0	0	0	0	503	513	510	31	0	
6	0	0	0	0	2	506	511	510	31	0	
7	0	0	0	0	0	505	511	507	31	0	
8	0	0	0	0	0	503	514	510	31	0	
9	0	0	0	0	0	507	513	507	31	0	
10	0	0	0	0	0	504	514	510	31	0	
11	0	0	0	0	0	507	513	511	31	0	
12	0	0	0	0	0	507	512	509	31	0	
13	0	0	0	0	0	504	513	509	31	0	
14	0	0	0	0	3	501	514	508	31	0	
15	0	0	0	0	0	504	511	510	32	0	
0	0	0	0	0	0	504	511	510	32	0	
1	0	0	0	0	0	502	510	510	32	0	
2	0	0	0	0	0	504	512	510	31	0	
3	0	0	0	0	0	507	512	508	31	0	
4	0	0	0	0	0	504	515	511	31	0	
5	0	0	0	0	0	504	512	509	31	0	
6	0	0	0	0	1	504	514	508	31	0	
7	0	0	0	0	0	507	515	511	31	0	
8	0	0	0	0	0	508	516	508	31	0	
9	0	0	0	0	0	513	516	511	31	0	
10	0	0	0	0	0	510	510	510	31	0	
11	0	0	0	0	0	506	508	509	32	0	
12	0	0	0	0	0	505	509	510	32	0	
13	0	0	0	0	0	504	513	508	31	0	
14	0	0	0	0	1	506	516	509	31	0	
15	0	0	0	0	0	508	514	509	31	0	
0	0	0	0	0	0	509	517	508	31	0	
1	0	0	0	0	0	510	512	509	31	0	
2	0	0	0	0	0	506	509	508	31	0	
3	0	0	0	0	0	504	512	510	32	0	
4	0	0	0	0	0	500	511	510	32	0	
5	0	0	0	0	0	497	513	508	31	0	
6	0	0	0	0	1	499	516	511	31	0	
7	0	0	0	0	0	499	508	509	31	0	
8	0	0	0	0	0	499	504	509	32	0	
9	0	0	0	0	0	501	503	509	32	0	
10	0	0	0	0	0	497	505	509	32	0	
11	0	0	0	0	0	500	508	510	32	0	
12	0	0	0	0	0	505	511	508	31	0	
13	0	0	0	0	0	509	515	510	31	0	
14	0	0	0	0	2	511	512	509	31	0	
15	0	0	0	0	0	511	511	508	31	0	
0	0	0	0	0	0	508	509	511	32	0	
1	0	0	0	0	0	504	513	508	31	0	
2	0	0	0	0	0	504	517	510	31	0	
3	0	0	0	0	0	505	519	509	31	0	
4	0	0	0	0	0	507	512	509	31	0	
5	0	0	0	0	0	510	513	511	31	0	
6	0	0	0	0	3	506	512	509	31	0	
7	0	0	0	0	0	505	512	509	31	0	
8	0	0	0	0	0	504	514	509	31	0	
9	0	0	0	0	0	505	518	509	31	0	
10	0	0	0	0	0	504	515	511	31	0	
11	0	0	0	0	0	506	512	508	31	0	
12	0	0	0	0	0	508	511	508	31	0	
13	0	0	0	0	0	507	512	510	31	0	
14	0	0	0	0	3	505	511	508	32	0	
15	0	0	0	0	0	507	510	510	31	0	
0	0	0	0	0	0	506	509	509	31	0	
1	0	0	0	0	0	502	511	509	31	0	
2	0	0	0	0	0	503	511	510	31	0	
3	0	0	0	0	0	500	510	508	31	0	
4	0	0	0	0	0	501	511	511	31	0	
5	0	0	0	0	0	500	509	508	31	0	
6	0	0	0	0	2	503	510	509	32	0	
7	0	0	0	0	0	503	510	508	32	0	
8	0	0	0	0	0	505	511	508	32	0	
9	0	0	0	0	0	504	512	509	32	0	
10	0	0	0	0	0	505	516	511	31	0	
11	0	0	0	0	0	509	516	509	31	0	
12	0	0	0	0	0	507	513	510	31	0	
13	0	0	0	0	0	506	515	509	31	0	
14	0	0	0	0	2	507	516	510	31	0	
15	0	0	0	0	0	508	516	508	31	0	
0	0	0	0	0	0	506	512	508	31	0	
1	0	0	0	0	0	505	511	510	31	0	
2	0	0	0	0	0	507	509	509	31	0	
3	0	0	0	0	0	504	511	511	31	0	
4	0	0	0	0	0	504	512	508	31	0	
5	0	0	0	0	0	505	510	509	31	0	
6	0	0	0	0	2	506	510	510	31	0	
7	0	0	0	0	0	503	510	508	31	0	
8	0	0	0	0	0	504	510	509	31	0	
9	0	0	0	0	0	509	514	509	31	0	
10	0	0	0	0	0	506	515	509	31	0	
11	0	0	0	0	0	504	513	509	31	0	
12	0	0	0	0	0	504	512	508	31	0	
13	0	0	0	0	0	504	515	510	31	0	
14	0	0	0	0	2	505	513	509	32	0	
15	0	0	0	0	0	505	514	510	32	0	
0	0	0	0	0	0	508	514	509	31	0	
1	0	0	0	0	0	506	516	508	31	0	
2	0	0	0	0	0	506	513	510	31	0	
3	0	0	0	0	0	509	515	509	32	0	
4	0	0	0	0	0	508	512	510	31	0	
5	0	0	0	0	0	504	512	510	31	0	
6	0	0	0	0	2	504	511	508	31	0	
7	0	0	0	0	0	505	511	511	31	0	
8	0	0	0	0	0	504	509	510	31	0	
9	0	0	0	0	0	504	509	510	31	0	
10	0	0	0	0	0	503	510	510	31	0	
11	0	0	0	0	0	507	510	509	31	0	
12	0	0	0	0	0	506	511	509	31	0	
13	0	0	0	0	0	506	511	509	31	0	
14	0	0	0	0	2	507	511	509	31	0	
15	0	0	0	0	0	505	509	508	31	0	
0	0	0	0	0	0	504	513	508	31	0	
1	0	0	0	0	0	504	512	509	31	0	
2	0	0	0	0	0	504	510	508	31	0	
3	0	0	0	0	0	507	512	510	31	0	
4	0	0	0	0	0	509	513	510	31	0	
5	0	0	0	0	0	510	511	508	31	0	
6	0	0	0	0	2	505	512	510	31	0	
7	0	0	0	0	0	502	510	509	31	0	
8	0	0	0	0	0	501	510	509	31	0	
9	0	0	0	0	0	501	510	510	32	0	
10	0	0	0	0	0	498	510	508	32	0	
11	0	0	0	0	0	502	512	510	31	0	
12	0	0	0	0	0	506	513	508	32	0	
13	0	0	0	0	0	503	511	510	32	0	
14	0	0	0	0	2	502	515	510	31	0	
15	0	0	0	0	0	503	513	510	32	0	
0	0	0	0	0	0	505	512	510	31	0	
1	0	0	0	0	0	507	515	509	31	0	
2	0	0	0	0	0	508	515	509	31	0	
3	0	0	0	0	0	507	513	510	31	0	
4	0	0	0	0	0	508	514	508	31	0	
5	0	0	0	0	0	504	513	509	31	0	
6	0	0	0	0	1	504	510	508	31	0	
7	0	0	0	0	0	504	512	511	31	0	
8	0	0	0	0	0	504	512	510	31	0	
9	0	0	0	0	0	505	514	509	31	0	
10	0	0	0	0	0	507	515	509	31	0	
11	0	0	0	0	0	507	508	508	32	0	
12	0	0	0	0	0	509	506	510	32	0	
13	0	0	0	0	0	509	511	510	31	0	
14	0	0	0	0	1	505	510	508	31	0	
15	0	0	0	0	0	502	510	510	31	0	
0	0	0	0	0	0	503	511	508	31	0	
1	0	0	0	0	0	504	510	510	31	0	
2	0	0	0	0	0	504	511	510	31	0	
3	0	0	0	0	0	507	514	509	31	0	
4	0	0	0	0	0	507	513	511	31	0	
5	0	0	0	0	0	504	514	508	31	0	
6	0	0	0	0	3	501	513	510	31	0	
7	0	0	0	0	0	502	512	508	31	0	
8	0	0	0	0	0	504	514	508	31	0	
9	0	0	0	0	0	506	513	509	32	0	
10	0	0	0	0	0	505	510	508	32	0	
11	0	0	0	0	0	506	513	508	31	0	
12	0	0	0	0	0	507	513	510	31	0	
13	0	0	0	0	0	504	513	509	31	0	
14	0	0	0	0	2	504	513	510	31	0	
15	0	0	0	0	0	507	513	508	31	0	
0	0	0	0	0	0	507	508	510	31	0	
1	0	0	0	0	0	506	508	509	31	0	
2	0	0	0	0	0	505	510	509	31	0	
3	0	0	0	0	0	501	510	510	32	0	
4	0	0	0	0	0	502	516	507	31	0	
5	0	0	0	0	0	504	513	509	31	0	
6	0	0	0	0	2	506	515	509	31	0	
7	0	0	0	0	0	504	512	510	31	0	
8	0	0	0	0	0	508	510	509	31	0	
9	0	0	0	0	0	506	512	508	31	0	
10	0	0	0	0	0	506	511	508	31	0	
11	0	0	0	0	0	506	514	510	31	0	
12	0	0	0	0	0	506	513	511	31	0	
13	0	0	0	0	0	503	515	510	31	0	
14	0	0	0	0	3	504	513	508	31	0	
15	0	0	0	0	0	507	511	509	32	0	
0	0	0	0	0	0	506	514	510	32	0	
1	0	0	0	0	0	507	511	509	31	0	
2	0	0	0	0	0	508	512	508	31	0	
3	0	0	0	0	0	508	509	510	31	0	
4	0	0	0	0	0	509	509	510	31	0	
5	0	0	0	0	0	504	511	510	31	0	
6	0	0	0	0	2	502	512	510	31	0	
7	0	0	0	0	0	502	514	509	31	0	
8	0	0	0	0	0	504	515	509	31	0	
9	0	0	0	0	0	508	512	510	31	0	
10	0	0	0	0	0	510	512	509	32	0	
11	0	0	0	0	0	506	512	508	32	0	
12	0	0	0	0	0	502	510	509	31	0	
13	0	0	0	0	0	500	514	509	31	0	
14	0	0	0	0	2	501	515	510	31	0	
15	0	0	0	0	0	500	513	510	31	0	
0	0	0	0	0	0	502	508	508	31	0	
1	0	0	0	0	0	508	514	509	31	0	
2	0	0	0	0	0	510	516	510	31	0	
3	0	0	0	0	0	506	513	509	32	0	
4	0	0	0	0	0	504	510	510	31	0	
5	0	0	0	0	0	507	510	508	31	0	
6	0	0	0	0	2	508	509	510	31	0	
7	0	0	0	0	0	505	510	508	31	0	
8	0	0	0	0	0	505	512	510	31	0	
9	0	0	0	0	0	503	511	510	31	0	
10	0	0	0	0	0	502	513	508	31	0	
11	0	0	0	0	0	504	513	510	31	0	
12	0	0	0	0	0	503	512	510	31	0	
13	0	0	0	0	0	502	510	509	31	0	
14	0	0	0	0	3	504	512	508	32	0	
15	0	0	0	0	0	502	513	510	32	0	
0	0	0	0	0	0	505	511	511	32	0	
1	0	0	0	0	0	506	513	509	31	0	
2	0	0	0	0	0	508	512	509	31	0	
3	0	0	0	0	0	510	511	510	31	0	
4	0	0	0	0	0	508	510	508	31	0	
5	0	0	0	0	0	507	511	509	32	0	
6	0	0	0	0	3	504	515	507	31	0	
7	0	0	0	0	0	504	513	510	31	0	
8	0	0	0	0	0	503	512	509	31	0	
9	0	0	0	0	0	507	510	510	31	0	
10	0	0	0	0	0	508	512	509	31	0	
11	0	0	0	0	0	510	513	507	31	0	
12	0	0	0	0	0	508	513	510	31	0	
13	0	0	0	0	0	508	510	509	31	0	
14	0	0	0	0	2	508	514	509	31	0	
15	0	0	0	0	0	499	513	509	31	0	
0	0	0	0	0	0	497	512	508	31	0	
1	0	0	0	0	0	502	512	509	31	0	
2	0	0	0	0	0	502	511	510	31	0	
3	0	0	0	0	0	500	515	509	31	0	
4	0	0	0	0	0	500	513	510	31	0	
5	0	0	0	0	0	501	511	508	31	0	
6	0	0	0	0	2	504	512	508	31	0	
7	0	0	0	0	0	505	511	510	31	0	
8	0	0	0	0	0	506	512	508	31	0	
9	0	0	0	0	0	507	511	508	31	0	
10	0	0	0	0	0	507	510	510	31	0	
11	0	0	0	0	0	509	507	509	31	0	
12	0	0	0	0	0	508	512	509	31	0	
13	0	0	0	0	0	506	515	509	31	0	
14	0	0	0	0	1	508	515	510	31	0	
15	0	0	0	0	0	506	511	508	31	0	
0	0	0	0	0	0	505	509	510	32	0	
1	0	0	0	0	0	503	511	510	31	0	
2	0	0	0	0	0	504	512	509	32	0	
3	0	0	0	0	0	507	514	510	31	0	
4	0	0	0	0	0	508	515	510	31	0	
5	0	0	0	0	0	507	516	510	31	0	
6	0	0	0	0	1	506	512	510	31	0	
7	0	0	0	0	0	505	513	509	31	0	
8	0	0	0	0	0	504	514	511	32	0	
9	0	0	0	0	0	505	513	508	31	0	
10	0	0	0	0	0	505	514	509	31	0	
11	0	0	0	0	0	505	512	510	31	0	
12	0	0	0	0	0	503	509	508	31	0	
13	0	0	0	0	0	502	507	510	31	0	
14	0	0	0	0	1	506	507	510	31	0	
15	0	0	0	0	0	504	509	510	31	0	
0	0	0	0	0	0	503	511	510	31	0	
1	0	0	0	0	0	505	511	508	32	0	
2	0	0	0	0	0	507	515	510	31	0	
3	0	0	0	0	0	504	513	510	31	0	
4	0	0	0	0	0	504	513	509	32	0	
5	0	0	0	0	0	504	515	510	31	0	
6	0	0	0	0	3	507	514	507	31	0	
7	0	0	0	0	0	507	513	509	31	0	
8	0	0	0	0	0	507	513	511	31	0	
9	0	0	0	0	0	505	512	509	31	0	
10	0	0	0	0	0	502	513	511	31	0	
11	0	0	0	0	0	503	513	507	31	0	
12	0	0	0	0	0	507	513	507	31	0	
13	0	0	0	0	0	508	513	511	32	0	
14	0	0	0	0	2	508	513	510	31	0	
15	0	0	0	0	0	508	514	510	31	0	
0	0	0	0	0	0	504	513	509	31	0	
1	0	0	0	0	0	504	512	509	31	0	
2	0	0	0	0	0	504	509	510	31	0	
3	0	0	0	0	0	504	510	510	31	0	
4	0	0	0	0	0	507	512	509	31	0	
5	0	0	0	0	0	506	510	509	32	0	
6	0	0	0	0	3	505	512	508	32	0	
7	0	0	0	0	0	508	515	510	31	0	
8	0	0	0	0	0	508	514	508	31	0	
9	0	0	0	0	0	508	509	509	31	0	
10	0	0	0	0	0	505	508	508	31	0	
11	0	0	0	0	0	503	508	508	32	0	
12	0	0	0	0	0	501	510	511	31	0	
13	0	0	0	0	0	499	512	509	31	0	
14	0	0	0	0	3	503	517	509	31	0	
15	0	0	0	0	0	500	516	508	31	0	
0	0	0	0	0	0	499	513	510	31	0	
1	0	0	0	0	0	504	510	508	31	0	
2	0	0	0	0	0	504	512	509	31	0	
3	0	0	0	0	0	504	512	510	31	0	
4	0	0	0	0	0	506	510	510	31	0	
5	0	0	0	0	0	504	509	510	31	0	
6	0	0	0	0	3	500	508	508	31	0	
7	0	0	0	0	0	503	512	509	31	0	
8	0	0	0	0	0	505	514	509	31	0	
9	0	0	0	0	0	507	513	508	31	0	
10	0	0	0	0	0	509	514	510	31	0	
11	0	0	0	0	0	508	513	508	31	0	
12	0	0	0	0	0	506	513	511	31	0	
13	0	0	0	0	0	506	515	510	31	0	
14	0	0	0	0	2	508	516	508	31	0	
15	0	0	0	0	0	508	516	510	31	0	
0	0	0	0	0	0	508	513	509	31	0	
1	0	0	0	0	0	508	513	509	31	0	
2	0	0	0	0	0	506	510	510	31	0	
3	0	0	0	0	0	507	508	508	32	0	
4	0	0	0	0	0	504	508	510	32	0	
5	0	0	0	0	0	507	511	508	31	0	
6	0	0	0	0	2	507	513	509	31	0	
7	0	0	0	0	0	504	508	508	31	0	
8	0	0	0	0	0	505	507	509	31	0	
9	0	0	0	0	0	506	505	509	31	0	
10	0	0	0	0	0	506	510	511	32	0	
11	0	0	0	0	0	509	515	510	31	0	
12	0	0	0	0	0	504	514	510	32	0	
13	0	0	0	0	0	502	515	508	31	0	
14	0	0	0	0	2	499	515	510	31	0	
15	0	0	0	0	0	500	515	508	31	0	
0	0	0	0	0	0	502	513	510	31	0	
1	0	0	0	0	0	503	514	510	31	0	
2	0	0	0	0	0	504	515	508	31	0	
3	0	0	0	0	0	505	515	510	31	0	
4	0	0	0	0	0	507	516	509	32	0	
5	0	0	0	0	0	503	512	509	32	0	
6	0	0	0	0	2	504	512	509	31	0	
7	0	0	0	0	0	507	515	508	31	0	
8	0	0	0	0	0	507	512	509	31	0	
9	0	0	0	0	0	507	511	512	31	0	
10	0	0	0	0	0	505	510	510	31	0	
11	0	0	0	0	0	506	513	510	31	0	
12	0	0	0	0	0	504	512	510	31	0	
13	0	0	0	0	0	506	513	509	31	0	
14	0	0	0	0	3	507	510	507	31	0	
15	0	0	0	0	0	505	511	509	31	0	
0	0	0	0	0	0	504	509	510	31	0	
1	0	0	0	0	0	507	508	509	32	0	
2	0	0	0	0	0	505	511	509	31	0	
3	0	0	0	0	0	507	513	507	31	0	
4	0	0	0	0	0	504	515	509	31	0	
5	0	0	0	0	0	505	517	509	31	0	
6	0	0	0	0	2	506	516	509	31	0	
7	0	0	0	0	0	503	511	510	31	0	
8	0	0	0	0	0	504	509	509	31	0	
9	0	0	0	0	0	505	513	510	32	0	
10	0	0	0	0	0	504	514	510	31	0	
11	0	0	0	0	0	505	513	508	31	0	
12	0	0	0	0	0	507	513	509	32	0	
13	0	0	0	0	0	504	510	510	31	0	
14	0	0	0	0	1	505	512	509	31	0	
15	0	0	0	0	0	504	510	510	31	0	
0	0	0	0	0	0	503	511	508	31	0	
1	0	0	0	0	0	505	513	509	32	0	
2	0	0	0	0	0	507	512	510	31	0	
3	0	0	0	0	0	510	512	510	31	0	
4	0	0	0	0	0	507	511	510	31	0	
5	0	0	0	0	0	502	510	508	31	0	
6	0	0	0	0	1	503	508	510	31	0	
7	0	0	0	0	0	504	510	509	31	0	
8	0	0	0	0	0	504	512	510	31	0	
9	0	0	0	0	0	503	513	509	31	0	
10	0	0	0	0	0	503	513	508	32	0	
11	0	0	0	0	0	504	511	509	31	0	
12	0	0	0	0	0	507	511	510	31	0	
13	0	0	0	0	0	508	513	510	31	0	
14	0	0	0	0	1	507	512	509	31	0	
15	0	0	0	0	0	504	515	508	31	0	
0	0	0	0	0	0	504	517	510	32	0	
1	0	0	0	0	0	505	515	511	31	0	
2	0	0	0	0	0	505	514	508	31	0	
3	0	0	0	0	0	505	511	509	31	0	
4	0	0	0	0	0	509	508	509	31	0	
5	0	0	0	0	0	506	508	508	31	0	
6	0	0	0	0	2	501	508	510	31	0	
7	0	0	0	0	0	500	511	509	31	0	
8	0	0	0	0	0	506	512	510	31	0	
9	0	0	0	0	0	507	510	509	31	0	
10	0	0	0	0	0	504	508	508	31	0	
11	0	0	0	0	0	503	508	510	32	0	
12	0	0	0	0	0	505	512	509	31	0	
13	0	0	0	0	0	507	513	510	31	0	
14	0	0	0	0	2	507	512	508	31	0	
15	0	0	0	0	0	507	512	509	32	0	
0	0	0	0	0	0	505	513	511	32	0	
1	0	0	0	0	0	503	515	509	31	0	
2	0	0	0	0	0	502	514	510	31	0	
3	0	0	0	0	0	503	512	509	31	0	
4	0	0	0	0	0	504	511	510	31	0	
5	0	0	0	0	0	506	508	507	31	0	
6	0	0	0	0	2	504	511	508	31	0	
7	0	0	0	0	0	507	512	509	31	0	
8	0	0	0	0	0	507	512	510	31	0	
9	0	0	0	0	0	504	512	510	31	0	
10	0	0	0	0	0	507	512	507	31	0	
11	0	0	0	0	0	507	512	510	31	0	
12	0	0	0	0	0	505	514	510	31	0	
13	0	0	0	0	0	505	512	508	31	0	
14	0	0	0	0	2	504	511	511	31	0	
15	0	0	0	0	0	504	511	509	31	0	
0	0	0	0	0	0	504	513	509	31	0	
1	0	0	0	0	0	504	512	509	31	0	
2	0	0	0	0	0	508	514	509	31	0	
3	0	0	0	0	0	508	515	509	31	0	
4	0	0	0	0	0	507	513	509	31	0	
5	0	0	0	0	0	506	511	508	32	0	
6	0	0	0	0	2	504	513	510	31	0	
7	0	0	0	0	0	500	515	509	31	0	
8	0	0	0	0	0	501	514	509	31	0	
9	0	0	0	0	0	504	513	511	31	0	
10	0	0	0	0	0	510	512	509	31	0	
11	0	0	0	0	0	513	510	510	31	0	
12	0	0	0	0	0	509	510	508	31	0	
13	0	0	0	0	0	510	510	512	31	0	
14	0	0	0	0	3	505	510	508	31	0	
15	0	0	0	0	0	503	513	509	31	0	
0	0	0	0	0	0	504	511	510	31	0	
1	0	0	0	0	0	504	510	508	32	0	
2	0	0	0	0	0	504	511	511	31	0	
3	0	0	0	0	0	504	510	508	31	0	
4	0	0	0	0	0	503	514	509	31	0	
5	0	0	0	0	0	504	512	509	31	0	
6	0	0	0	0	3	506	511	509	31	0	
7	0	0	0	0	0	504	511	509	31	0	
8	0	0	0	0	0	504	512	508	32	0	
9	0	0	0	0	0	504	511	510	31	0	
10	0	0	0	0	0	503	512	510	31	0	
11	0	0	0	0	0	507	510	509	31	0	
12	0	0	0	0	0	505	510	509	31	0	
13	0	0	0	0	0	505	512	508	31	0	
14	0	0	0	0	2	504	512	509	31	0	
15	0	0	0	0	0	505	513	510	31	0	
0	0	0	0	0	0	507	514	509	31	0	
1	0	0	0	0	0	504	514	509	32	0	
2	0	0	0	0	0	504	514	508	32	0	
3	0	0	0	0	0	505	515	509	31	0	
4	0	0	0	0	0	506	512	509	31	0	
5	0	0	0	0	0	504	512	508	31	0	
6	0	0	0	0	2	506	514	511	31	0	
7	0	0	0	0	0	506	513	508	31	0	
8	0	0	0	0	0	505	514	509	31	0	
9	0	0	0	0	0	508	510	510	31	0	
10	0	0	0	0	0	503	509	508	32	0	
11	0	0	0	0	0	504	509	511	32	0	
12	0	0	0	0	0	502	511	509	31	0	
13	0	0	0	0	0	503	511	509	31	0	
14	0	0	0	0	2	506	515	510	31	0	
15	0	0	0	0	0	504	514	508	31	0	
0	0	0	0	0	0	508	516	510	31	0	
1	0	0	0	0	0	504	514	509	32	0	
2	0	0	0	0	0	505	511	509	31	0	
3	0	0	0	0	0	504	513	509	32	0	
4	0	0	0	0	0	503	511	509	31	0	
5	0	0	0	0	0	506	511	510	31	0	
6	0	0	0	0	3	510	512	509	31	0	
7	0	0	0	0	0	506	512	509	31	0	
8	0	0	0	0	0	506	512	509	31	0	
9	0	0	0	0	0	506	514	508	31	0	
10	0	0	0	0	0	503	514	510	31	0	
11	0	0	0	0	0	505	512	508	31	0	
12	0	0	0	0	0	509	508	509	31	0	
13	0	0	0	0	0	506	505	510	31	0	
14	0	0	0	0	1	504	502	510	32	0	
15	0	0	0	0	0	506	505	510	32	0	
0	0	0	0	0	0	505	509	508	32	0	
1	0	0	0	0	0	504	513	509	31	0	
2	0	0	0	0	0	504	515	510	31	0	
3	0	0	0	0	0	501	516	509	31	0	
4	0	0	0	0	0	504	515	510	32	0	
5	0	0	0	0	0	504	513	508	31	0	
6	0	0	0	0	1	504	513	509	31	0	
7	0	0	0	0	0	505	512	509	31	0	
8	0	0	0	0	0	505	512	509	31	0	
9	0	0	0	0	0	507	513	508	31	0	
10	0	0	0	0	0	508	515	510	31	0	
11	0	0	0	0	0	507	514	510	31	0	
12	0	0	0	0	0	507	514	510	31	0	
13	0	0	0	0	0	504	513	508	31	0	
14	0	0	0	0	2	504	512	511	31	0	
15	0	0	0	0	0	499	512	508	31	0	
0	0	0	0	0	0	502	511	509	31	0	
1	0	0	0	0	0	502	512	510	31	0	
2	0	0	0	0	0	502	512	508	31	0	
3	0	0	0	0	0	505	510	510	31	0	
4	0	0	0	0	0	507	510	509	31	0	
5	0	0	0	0	0	510	512	510	31	0	
6	0	0	0	0	2	510	514	508	31	0	
7	0	0	0	0	0	508	511	508	31	0	
8	0	0	0	0	0	505	512	509	31	0	
9	0	0	0	0	0	506	513	510	31	0	
10	0	0	0	0	0	504	512	510	31	0	
11	0	0	0	0	0	505	514	509	31	0	
12	0	0	0	0	0	507	514	508	31	0	
13	0	0	0	0	0	505	513	510	31	0	
14	0	0	0	0	3	504	512	510	32	0	
15	0	0	0	0	0	502	513	510	31	0	
0	0	0	0	0	0	504	515	510	31	0	
1	0	0	0	0	0	503	511	508	31	0	
2	0	0	0	0	0	504	511	511	31	0	
3	0	0	0	0	0	505	511	508	31	0	
4	0	0	0	0	0	503	510	510	32	0	
5	0	0	0	0	0	506	511	510	31	0	
6	0	0	0	0	3	506	510	508	31	0	
7	0	0	0	0	0	504	511	509	31	0	
8	0	0	0	0	0	504	510	509	31	0	
9	0	0	0	0	0	503	511	510	31	0	
10	0	0	0	0	0	505	514	510	31	0	
11	0	0	0	0	0	507	513	508	31	0	
12	0	0	0	0	0	510	513	509	31	0	
13	0	0	0	0	0	507	511	510	31	0	
14	0	0	0	0	3	505	511	509	31	0	
15	0	0	0	0	0	504	511	509	32	0	
0	0	0	0	0	0	502	508	508	32	0	
1	0	0	0	0	0	503	512	509	32	0	
2	0	0	0	0	0	505	512	509	31	0	
3	0	0	0	0	0	503	514	510	31	0	
4	0	0	0	0	0	501	513	510	31	0	
5	0	0	0	0	0	503	514	510	31	0	
6	0	0	0	0	2	505	514	510	31	0	
7	0	0	0	0	0	504	515	508	31	0	
8	0	0	0	0	0	503	516	510	31	0	
9	0	0	0	0	0	508	515	509	31	0	
10	0	0	0	0	0	505	510	509	31	0	
11	0	0	0	0	0	508	512	509	31	0	
12	0	0	0	0	0	510	510	508	31	0	
13	0	0	0	0	0	508	511	510	31	0	
14	0	0	0	0	2	508	513	510	31	0	
15	0	0	0	0	0	508	512	509	31	0	
0	0	0	0	0	0	505	512	509	31	0	
1	0	0	0	0	0	503	512	511	31	0	
2	0	0	0	0	0	502	512	508	32	0	
3	0	0	0	0	0	503	512	509	32	0	
4	0	0	0	0	0	502	512	508	31	0	
5	0	0	0	0	0	504	509	510	31	0	
6	0	0	0	0	3	509	507	509	31	0	
7	0	0	0	0	0	505	509	508	31	0	
8	0	0	0	0	0	505	512	510	31	0	
9	0	0	0	0	0	508	513	508	31	0	
10	0	0	0	0	0	507	512	512	31	0	
11	0	0	0	0	0	508	512	508	31	0	
12	0	0	0	0	0	505	513	510	31	0	
13	0	0	0	0	0	503	513	509	31	0	
14	0	0	0	0	2	504	514	509	31	0	
15	0	0	0	0	0	506	512	508	32	0	
0	0	0	0	0	0	504	510	511	31	0	
1	0	0	0	0	0	505	507	510	32	0	
2	0	0	0	0	0	505	511	508	32	0	
3	0	0	0	0	0	506	512	508	31	0	
4	0	0	0	0	0	505	514	510	31	0	
5	0	0	0	0	0	502	512	509	31	0	
6	0	0	0	0	2	500	514	510	31	0	
7	0	0	0	0	0	502	515	508	31	0	
8	0	0	0	0	0	505	512	508	31	0	
9	0	0	0	0	0	507	510	508	31	0	
10	0	0	0	0	0	508	511	511	31	0	
11	0	0	0	0	0	508	509	510	31	0	
12	0	0	0	0	0	505	509	510	32	0	
13	0	0	0	0	0	502	511	509	31	0	
14	0	0	0	0	2	504	514	510	31	0	
15	0	0	0	0	0	504	514	508	31	0	
0	0	0	0	0	0	505	513	509	31	0	
1	0	0	0	0	0	505	513	509	31	0	
2	0	0	0	0	0	503	512	509	31	0	
3	0	0	0	0	0	507	513	511	31	0	
4	0	0	0	0	0	507	512	508	31	0	
5	0	0	0	0	0	506	514	509	31	0	
6	0	0	0	0	1	507	511	510	31	0	
7	0	0	0	0	0	509	513	508	31	0	
8	0	0	0	0	0	507	516	509	31	0	
9	0	0	0	0	0	505	515	510	31	0	
10	0	0	0	0	0	505	514	510	31	0	
11	0	0	0	0	0	503	515	510	31	0	
12	0	0	0	0	0	502	512	509	31	0	
13	0	0	0	0	0	504	510	511	31	0	
14	0	0	0	0	1	504	510	508	31	0	
15	0	0	0	0	0	503	509	508	32	0	
0	0	0	0	0	0	504	506	510	32	0	
1	0	0	0	0	0	503	508	508	31	0	
2	0	0	0	0	0	505	508	510	32	0	
3	0	0	0	0	0	505	510	508	31	0	
4	0	0	0	0	0	508	513	508	31	0	
5	0	0	0	0	0	508	510	510	31	0	
6	0	0	0	0	1	507	511	509	31	0	
7	0	0	0	0	0	508	511	511	32	0	
8	0	0	0	0	0	508	512	508	32	0	
9	0	0	0	0	0	508	515	508	31	0	
10	0	0	0	0	0	504	515	509	31	0	
11	0	0	0	0	0	503	514	508	31	0	
12	0	0	0	0	0	504	513	511	31	0	
13	0	0	0	0	0	505	514	510	31	0	
14	0	0	0	0	2	507	510	508	31	0	
15	0	0	0	0	0	505	512	510	31	0	
0	0	0	0	0	0	503	511	508	31	0	
1	0	0	0	0	0	501	510	510	31	0	
2	0	0	0	0	0	500	510	508	31	0	
3	0	0	0	0	0	503	510	510	31	0	
4	0	0	0	0	0	504	512	510	31	0	
5	0	0	0	0	0	505	511	508	31	0	
6	0	0	0	0	2	503	512	510	31	0	
7	0	0	0	0	0	507	513	509	31	0	
8	0	0	0	0	0	506	514	510	31	0	
9	0	0	0	0	0	508	513	509	32	0	
10	0	0	0	0	0	508	511	508	32	0	
11	0	0	0	0	0	509	513	509	31	0	
12	0	0	0	0	0	508	512	509	31	0	
13	0	0	0	0	0	502	511	508	31	0	
14	0	0	0	0	2	501	514	509	31	0	
15	0	0	0	0	0	501	512	508	31	0	
0	0	0	0	0	0	504	511	510	31	0	
1	0	0	0	0	0	505	510	510	31	0	
2	0	0	0	0	0	507	510	510	32	0	
3	0	0	0	0	0	503	511	509	31	0	
4	0	0	0	0	0	502	513	509	31	0	
5	0	0	0	0	0	506	514	508	31	0	
6	0	0	0	0	2	506	513	509	31	0	
7	0	0	0	0	0	502	512	509	31	0	
8	0	0	0	0	0	507	515	509	31	0	
9	0	0	0	0	0	512	516	509	31	0	
10	0	0	0	0	0	507	514	511	31	0	
11	0	0	0	0	0	505	515	508	31	0	
12	0	0	0	0	0	504	512	510	31	0	
13	0	0	0	0	0	501	509	510	31	0	
14	0	0	0	0	2	505	511	510	32	0	
15	0	0	0	0	0	507	512	510	31	0	
0	0	0	0	0	0	507	509	508	31	0	
1	0	0	0	0	0	506	509	510	31	0	
2	0	0	0	0	0	503	508	509	31	0	
3	0	0	0	0	0	505	511	509	31	0	
4	0	0	0	0	0	505	513	510	31	0	
5	0	0	0	0	0	504	511	509	32	0	
6	0	0	0	0	2	502	513	508	32	0	
7	0	0	0	0	0	504	515	509	32	0	
8	0	0	0	0	0	510	515	509	31	0	
9	0	0	0	0	0	509	515	510	31	0	
10	0	0	0	0	0	507	513	508	32	0	
11	0	0	0	0	0	504	511	509	32	0	
12	0	0	0	0	0	502	514	509	32	0	
13	0	0	0	0	0	504	518	509	31	0	
14	0	0	0	0	2	508	517	510	31	0	
15	0	0	0	0	0	504	513	509	31	0	
0	0	0	0	0	0	506	512	510	31	0	
1	0	0	0	0	0	504	509	509	31	0	
2	0	0	0	0	0	503	505	508	31	0	
3	0	0	0	0	0	501	509	511	31	0	
4	0	0	0	0	0	500	507	508	31	0	
5	0	0	0	0	0	503	500	510	32	0	
6	0	0	0	0	2	502	506	509	32	0	
7	0	0	0	0	0	505	510	510	32	0	
8	0	0	0	0	0	506	514	510	32	0	
9	0	0	0	0	0	504	512	508	32	0	
10	0	0	0	0	0	509	518	510	31	0	
11	0	0	0	0	0	508	521	510	31	0	
12	0	0	0	0	0	506	518	509	31	0	
13	0	0	0	0	0	505	513	510	31	0	
14	0	0	0	0	2	504	507	509	31	0	
15	0	0	0	0	0	504	506	508	31	0	
0	0	0	0	0	0	505	510	510	31	0	
1	0	0	0	0	0	504	513	508	31	0	
2	0	0	0	0	0	509	516	509	31	0	
3	0	0	0	0	0	512	519	511	31	0	
4	0	0	0	0	0	512	514	511	31	0	
5	0	0	0	0	0	510	511	509	31	0	
6	0	0	0	0	2	509	511	510	31	0	
7	0	0	0	0	0	502	509	510	31	0	
8	0	0	0	0	0	499	509	508	32	0	
9	0	0	0	0	0	499	511	510	31	0	
10	0	0	0	0	0	504	511	509	31	0	
11	0	0	0	0	0	506	515	509	31	0	
12	0	0	0	0	0	512	518	509	31	0	
13	0	0	0	0	0	506	515	508	31	0	
14	0	0	0	0	2	504	513	510	32	0	
15	0	0	0	0	0	504	513	510	32	0	
0	0	0	0	0	0	505	511	508	32	0	
1	0	0	0	0	0	502	510	510	31	0	
2	0	0	0	0	0	499	508	507	31	0	
3	0	0	0	0	0	504	510	509	31	0	
4	0	0	0	0	0	506	513	509	31	0	
5	0	0	0	0	0	506	513	509	31	0	
6	0	0	0	0	1	507	512	511	31	0	
7	0	0	0	0	0	507	512	507	31	0	
8	0	0	0	0	0	506	513	509	31	0	
9	0	0	0	0	0	507	515	510	31	0	
10	0	0	0	0	0	507	515	509	31	0	
11	0	0	0	0	0	505	509	510	31	0	
12	0	0	0	0	0	504	508	509	32	0	
13	0	0	0	0	0	507	510	510	31	0	
14	0	0	0	0	1	503	507	509	32	0	
15	0	0	0	0	0	500	512	509	32	0	
0	0	0	0	0	0	503	513	510	32	0	
1	0	0	0	0	0	504	512	508	31	0	
2	0	0	0	0	0	504	513	510	31	0	
3	0	0	0	0	0	508	513	510	31	0	
4	0	0	0	0	0	506	511	509	31	0	
5	0	0	0	0	0	500	511	510	31	0	
6	0	0	0	0	1	504	512	508	31	0	
7	0	0	0	0	0	506	510	508	31	0	
8	0	0	0	0	0	503	507	510	32	0	
9	0	0	0	0	0	506	508	510	32	0	
10	0	0	0	0	0	507	515	510	31	0	
11	0	0	0	0	0	507	521	508	31	0	
12	0	0	0	0	0	508	522	510	31	0	
13	0	0	0	0	0	501	516	508	31	0	
14	0	0	0	0	2	508	510	509	31	0	
15	0	0	0	0	0	504	508	508	32	0	
0	0	0	0	0	0	503	512	508	32	0	
1	0	0	0	0	0	500	510	510	31	0	
2	0	0	0	0	0	504	511	510	31	0	
3	0	0	0	0	0	505	509	509	31	0	
4	0	0	0	0	0	507	511	509	31	0	
5	0	0	0	0	0	508	511	509	31	0	
6	0	0	0	0	2	505	513	508	32	0	
7	0	0	0	0	0	507	517	510	31	0	
8	0	0	0	0	0	504	519	508	31	0	
9	0	0	0	0	0	502	515	510	31	0	
10	0	0	0	0	0	506	508	509	32	0	
11	0	0	0	0	0	507	506	510	32	0	
12	0	0	0	0	0	505	510	508	32	0	
13	0	0	0	0	0	504	511	507	31	0	
14	0	0	0	0	3	504	508	510	31	0	
15	0	0	0	0	0	505	513	511	31	0	
0	0	0	0	0	0	501	512	509	31	0	
1	0	0	0	0	0	503	512	510	31	0	
2	0	0	0	0	0	506	512	508	31	0	
3	0	0	0	0	0	503	510	510	31	0	
4	0	0	0	0	0	505	513	510	31	0	
5	0	0	0	0	0	505	515	509	31	0	
6	0	0	0	0	3	507	515	509	32	0	
7	0	0	0	0	0	507	514	508	32	0	
8	0	0	0	0	0	507	510	509	31	0	
9	0	0	0	0	0	510	512	510	31	0	
10	0	0	0	0	0	512	515	510	31	0	
11	0	0	0	0	0	512	518	510	31	0	
12	0	0	0	0	0	509	519	508	31	0	
13	0	0	0	0	0	505	516	508	31	0	
14	0	0	0	0	2	504	511	510	31	0	
15	0	0	0	0	0	501	507	509	31	0	
0	0	0	0	0	0	499	504	509	32	0	
1	0	0	0	0	0	501	507	508	32	0	
2	0	0	0	0	0	502	504	509	32	0	
3	0	0	0	0	0	505	508	509	32	0	
4	0	0	0	0	0	506	509	509	32	0	
5	0	0	0	0	0	507	512	510	31	0	
6	0	0	0	0	3	508	515	508	31	0	
7	0	0	0	0	0	504	515	510	31	0	
8	0	0	0	0	0	505	513	510	31	0	
9	0	0	0	0	0	504	514	510	31	0	
10	0	0	0	0	0	505	512	509	31	0	
11	0	0	0	0	0	505	511	508	31	0	
12	0	0	0	0	0	502	510	510	32	0	
13	0	0	0	0	0	499	512	509	31	0	
14	0	0	0	0	2	501	510	508	31	0	
15	0	0	0	0	0	499	515	510	31	0	
0	0	0	0	0	0	503	514	507	31	0	
1	0	0	0	0	0	508	516	509	31	0	
2	0	0	0	0	0	509	512	508	31	0	
3	0	0	0	0	0	508	511	509	31	0	
4	0	0	0	0	0	509	513	510	31	0	
5	0	0	0	0	0	507	513	508	31	0	
6	0	0	0	0	2	508	512	509	31	0	
7	0	0	0	0	0	505	508	508	31	0	
8	0	0	0	0	0	504	509	511	32	0	
9	0	0	0	0	0	504	514	510	31	0	
10	0	0	0	0	0	507	515	510	31	0	
11	0	0	0	0	0	507	513	510	31	0	
12	0	0	0	0	0	504	516	507	31	0	
13	0	0	0	0	0	506	512	510	32	0	
14	0	0	0	0	2	504	508	508	32	0	
15	0	0	0	0	0	503	505	509	32	0	
0	0	0	0	0	0	502	508	510	32	0	
1	0	0	0	0	0	504	515	509	31	0	
2	0	0	0	0	0	504	513	510	31	0	
3	0	0	0	0	0	510	513	509	31	0	
4	0	0	0	0	0	507	512	508	31	0	
5	0	0	0	0	0	507	512	510	31	0	
6	0	0	0	0	3	505	517	507	31	0	
7	0	0	0	0	0	504	518	509	31	0	
8	0	0	0	0	0	500	514	510	31	0	
9	0	0	0	0	0	499	512	508	32	0	
10	0	0	0	0	0	504	511	509	32	0	
11	0	0	0	0	0	508	508	510	32	0	
12	0	0	0	0	0	510	506	510	32	0	
13	0	0	0	0	0	506	504	509	32	0	
14	0	0	0	0	1	504	509	511	32	0	
15	0	0	0	0	0	502	511	510	32	0	
0	0	0	0	0	0	502	510	508	32	0	
1	0	0	0	0	0	503	511	509	31	0	
2	0	0	0	0	0	505	514	510	31	0	
3	0	0	0	0	0	504	511	508	31	0	
4	0	0	0	0	0	504	511	510	31	0	
5	0	0	0	0	0	500	512	508	31	0	
6	0	0	0	0	1	503	515	508	31	0	
7	0	0	0	0	0	509	518	509	31	0	
8	0	0	0	0	0	510	515	508	31	0	
9	0	0	0	0	0	512	518	508	32	0	
10	0	0	0	0	0	510	515	511	31	0	
11	0	0	0	0	0	510	515	510	31	0	
12	0	0	0	0	0	511	510	508	31	0	
13	0	0	0	0	0	513	510	509	31	0	
14	0	0	0	0	1	509	510	510	31	0	
15	0	0	0	0	0	501	509	508	31	0	
0	0	0	0	0	0	498	510	509	31	0	
1	0	0	0	0	0	498	512	509	32	0	
2	0	0	0	0	0	499	509	508	31	0	
3	0	0	0	0	0	500	513	510	32	0	
4	0	0	0	0	0	502	507	508	31	0	
5	0	0	0	0	0	504	511	510	31	0	
6	0	0	0	0	2	507	508	509	32	0	
7	0	0	0	0	0	506	510	509	31	0	
8	0	0	0	0	0	506	513	510	31	0	
9	0	0	0	0	0	504	513	511	32	0	
10	0	0	0	0	0	504	511	510	31	0	
11	0	0	0	0	0	505	513	509	31	0	
12	0	0	0	0	0	505	512	508	31	0	
13	0	0	0	0	0	504	511	508	31	0	
14	0	0	0	0	2	504	511	511	31	0	
15	0	0	0	0	0	507	513	508	31	0	
0	0	0	0	0	0	508	515	508	31	0	
1	0	0	0	0	0	507	513	509	32	0	
2	0	0	0	0	0	507	513	508	32	0	
3	0	0	0	0	0	511	516	511	31	0	
4	0	0	0	0	0	507	515	509	31	0	
5	0	0	0	0	0	505	514	509	31	0	
6	0	0	0	0	2	504	516	509	31	0	
7	0	0	0	0	0	506	513	510	31	0	
8	0	0	0	0	0	508	516	508	31	0	
9	0	0	0	0	0	506	519	508	31	0	
10	0	0	0	0	0	503	518	508	31	0	
11	0	0	0	0	0	504	517	508	31	0	
12	0	0	0	0	0	504	511	510	31	0	
13	0	0	0	0	0	510	505	508	31	0	
14	0	0	0	0	2	513	502	510	32	0	
15	0	0	0	0	0	510	500	509	32	0	
0	0	0	0	0	0	503	502	510	32	0	
1	0	0	0	0	0	497	507	508	32	0	
2	0	0	0	0	0	494	510	511	32	0	
3	0	0	0	0	0	499	511	509	32	0	
4	0	0	0	0	0	503	513	509	31	0	
5	0	0	0	0	0	505	511	509	31	0	
6	0	0	0	0	2	505	513	510	31	0	
7	0	0	0	0	0	507	512	508	31	0	
8	0	0	0	0	0	504	510	510	31	0	
9	0	0	0	0	0	503	512	511	31	0	
10	0	0	0	0	0	502	512	508	31	0	
11	0	0	0	0	0	508	512	510	31	0	
12	0	0	0	0	0	508	512	511	32	0	
13	0	0	0	0	0	503	513	510	32	0	
14	0	0	0	0	2	504	512	509	32	0	
15	0	0	0	0	0	503	516	507	31	0	
0	0	0	0	0	0	502	514	509	31	0	
1	0	0	0	0	0	505	511	508	31	0	
2	0	0	0	0	0	504	512	510	31	0	
3	0	0	0	0	0	504	513	511	31	0	
4	0	0	0	0	0	506	513	508	31	0	
5	0	0	0	0	0	512	513	508	31	0	
6	0	0	0	0	2	515	512	508	31	0	
7	0	0	0	0	0	513	511	510	31	0	
8	0	0	0	0	0	506	513	510	31	0	
9	0	0	0	0	0	500	511	508	31	0	
10	0	0	0	0	0	497	510	510	31	0	
11	0	0	0	0	0	500	508	510	32	0	
12	0	0	0	0	0	503	511	509	31	0	
13	0	0	0	0	0	503	512	509	31	0	
14	0	0	0	0	2	502	511	508	31	0	
15	0	0	0	0	0	502	510	509	31	0	
0	0	0	0	0	0	500	511	511	31	0	
1	0	0	0	0	0	507	512	508	31	0	
2	0	0	0	0	0	505	514	509	31	0	
3	0	0	0	0	0	502	514	508	31	0	
4	0	0	0	0	0	508	514	509	31	0	
5	0	0	0	0	0	512	515	510	31	0	
6	0	0	0	0	3	511	518	509	31	0	
7	0	0	0	0	0	510	514	510	31	0	
8	0	0	0	0	0	504	517	508	31	0	
9	0	0	0	0	0	504	517	511	31	0	
10	0	0	0	0	0	508	511	508	31	0	
11	0	0	0	0	0	512	511	509	31	0	
12	0	0	0	0	0	512	512	509	31	0	
13	0	0	0	0	0	513	506	508	31	0	
14	0	0	0	0	2	508	507	510	31	0	
15	0	0	0	0	0	505	510	509	31	0	
0	0	0	0	0	0	496	508	509	32	0	
1	0	0	0	0	0	492	504	510	32	0	
2	0	0	0	0	0	499	506	510	32	0	
3	0	0	0	0	0	503	511	510	31	0	
4	0	0	0	0	0	504	514	508	31	0	
5	0	0	0	0	0	506	517	508	32	0	
6	0	0	0	0	2	509	518	510	31	0	
7	0	0	0	0	0	507	518	509	31	0	
8	0	0	0	0	0	505	519	511	31	0	
9	0	0	0	0	0	502	516	508	31	0	
10	0	0	0	0	0	501	510	509	31	0	
11	0	0	0	0	0	499	511	510	31	0	
12	0	0	0	0	0	498	512	508	31	0	
13	0	0	0	0	0	502	512	509	31	0	
14	0	0	0	0	1	504	512	512	31	0	
15	0	0	0	0	0	507	507	508	31	0	
0	0	0	0	0	0	513	505	510	31	0	
1	0	0	0	0	0	513	510	508	31	0	
2	0	0	0	0	0	510	515	510	31	0	
3	0	0	0	0	0	507	512	509	31	0	
4	0	0	0	0	0	505	511	510	32	0	
5	0	0	0	0	0	501	513	510	32	0	
6	0	0	0	0	1	500	513	508	32	0	
7	0	0	0	0	0	503	516	509	32	0	
8	0	0	0	0	0	504	515	508	31	0	
9	0	0	0	0	0	504	515	510	31	0	
10	0	0	0	0	0	507	516	510	31	0	
11	0	0	0	0	0	507	513	508	31	0	
12	0	0	0	0	0	510	512	508	31	0	
13	0	0	0	0	0	507	512	510	31	0	
14	0	0	0	0	1	505	511	509	31	0	
15	0	0	0	0	0	501	511	511	31	0	
0	0	0	0	0	0	503	505	508	32	0	
1	0	0	0	0	0	504	504	509	32	0	
2	0	0	0	0	0	505	508	508	32	0	
3	0	0	0	0	0	506	511	510	32	0	
4	0	0	0	0	0	503	510	509	31	0	
5	0	0	0	0	0	499	509	509	31	0	
6	0	0	0	0	3	501	514	508	31	0	
7	0	0	0	0	0	505	514	512	31	0	
8	0	0	0	0	0	508	518	509	32	0	
9	0	0	0	0	0	513	516	509	31	0	
10	0	0	0	0	0	514	514	510	31	0	
11	0	0	0	0	0	513	514	511	31	0	
12	0	0	0	0	0	510	509	507	31	0	
13	0	0	0	0	0	504	510	510	31	0	
14	0	0	0	0	3	502	511	509	32	0	
15	0	0	0	0	0	497	511	509	31	0	
0	0	0	0	0	0	500	513	511	31	0	
1	0	0	0	0	0	503	515	508	31	0	
2	0	0	0	0	0	504	514	510	31	0	
3	0	0	0	0	0	504	513	509	31	0	
4	0	0	0	0	0	506	513	509	31	0	
5	0	0	0	0	0	512	511	510	31	0	
6	0	0	0	0	3	514	511	509	31	0	
7	0	0	0	0	0	510	515	510	31	0	
8	0	0	0	0	0	502	515	509	31	0	
9	0	0	0	0	0	497	512	509	31	0	
10	0	0	0	0	0	493	510	510	31	0	
11	0	0	0	0	0	500	508	508	31	0	
12	0	0	0	0	0	505	505	509	31	0	
13	0	0	0	0	0	505	504	510	32	0	
14	0	0	0	0	2	504	504	509	32	0	
15	0	0	0	0	0	503	508	510	32	0	
0	0	0	0	0	0	495	508	508	32	0	
1	0	0	0	0	0	494	513	508	32	0	
2	0	0	0	0	0	504	522	510	32	0	
3	0	0	0	0	0	508	523	508	31	0	
4	0	0	0	0	0	510	523	510	31	0	
5	0	0	0	0	0	510	523	508	31	0	
6	0	0	0	0	2	513	518	509	31	0	
7	0	0	0	0	0	511	515	510	31	0	
8	0	0	0	0	0	512	510	510	31	0	
9	0	0	0	0	0	512	510	508	31	0	
10	0	0	0	0	0	511	509	511	31	0	
11	0	0	0	0	0	505	506	510	31	0	
12	0	0	0	0	0	503	504	510	31	0	
13	0	0	0	0	0	500	505	510	32	0	
14	0	0	0	0	2	497	503	510	32	0	
15	0	0	0	0	0	494	503	510	32	0	
0	0	0	0	0	0	497	508	509	32	0	
1	0	0	0	0	0	503	524	508	31	0	
2	0	0	0	0	0	508	529	508	31	0	
3	0	0	0	0	0	515	526	509	31	0	
4	0	0	0	0	0	517	517	509	31	0	
5	0	0	0	0	0	515	512	510	31	0	
6	0	0	0	0	2	512	508	510	31	0	
7	0	0	0	0	0	507	504	509	31	0	
8	0	0	0	0	0	505	503	510	31	0	
9	0	0	0	0	0	504	504	508	32	0	
10	0	0	0	0	0	499	506	511	32	0	
11	0	0	0	0	0	496	508	510	32	0	
12	0	0	0	0	0	498	511	507	32	0	
13	0	0	0	0	0	502	517	511	31	0	
14	0	0	0	0	3	505	517	508	31	0	
15	0	0	0	0	0	508	518	508	31	0	
0	0	0	0	0	0	504	516	509	31	0	
1	0	0	0	0	0	502	508	507	31	0	
2	0	0	0	0	0	502	505	510	31	0	
3	0	0	0	0	0	502	509	508	31	0	
4	0	0	0	0	0	508	517	510	31	0	
5	0	0	0	0	0	507	515	510	31	0	
6	0	0	0	0	2	508	514	508	31	0	
7	0	0	0	0	0	506	512	511	31	0	
8	0	0	0	0	0	503	511	507	31	0	
9	0	0	0	0	0	503	507	508	31	0	
10	0	0	0	0	0	500	508	509	31	0	
11	0	0	0	0	0	502	507	508	31	0	
12	0	0	0	0	0	502	509	510	32	0	
13	0	0	0	0	0	504	508	507	32	0	
14	0	0	0	0	2	505	511	510	31	0	
15	0	0	0	0	0	505	511	509	31	0	
0	0	0	0	0	0	509	510	510	31	0	
1	0	0	0	0	0	509	512	510	31	0	
2	0	0	0	0	0	509	512	508	31	0	
3	0	0	0	0	0	508	513	510	31	0	
4	0	0	0	0	0	506	512	509	31	0	
5	0	0	0	0	0	505	514	510	31	0	
6	0	0	0	0	2	503	514	511	31	0	
7	0	0	0	0	0	503	515	508	31	0	
8	0	0	0	0	0	500	512	510	31	0	
9	0	0	0	0	0	498	508	509	32	0	
10	0	0	0	0	0	500	511	508	31	0	
11	0	0	0	0	0	507	513	510	31	0	
12	0	0	0	0	0	508	514	509	31	0	
13	0	0	0	0	0	510	517	510	31	0	
14	0	0	0	0	1	510	513	509	31	0	
15	0	0	0	0	0	509	512	509	32	0	
0	0	0	0	0	0	505	510	508	32	0	
1	0	0	0	0	0	508	510	509	31	0	
2	0	0	0	0	0	509	513	508	31	0	
3	0	0	0	0	0	506	514	508	31	0	
4	0	0	0	0	0	501	515	509	31	0	
5	0	0	0	0	0	502	516	510	31	0	
6	0	0	0	0	1	505	511	509	31	0	
7	0	0	0	0	0	506	510	510	31	0	
8	0	0	0	0	0	505	512	508	31	0	
9	0	0	0	0	0	499	511	508	31	0	
10	0	0	0	0	0	503	511	509	31	0	
11	0	0	0	0	0	506	512	509	31	0	
12	0	0	0	0	0	504	513	511	31	0	
13	0	0	0	0	0	504	511	510	32	0	
14	0	0	0	0	1	504	512	508	32	0	
15	0	0	0	0	0	502	510	510	32	0	
0	0	0	0	0	0	503	509	510	32	0	
1	0	0	0	0	0	504	507	510	32	0	
2	0	0	0	0	0	510	510	509	31	0	
3	0	0	0	0	0	510	510	508	31	0	
4	0	0	0	0	0	510	514	510	31	0	
5	0	0	0	0	0	512	515	510	31	0	
6	0	0	0	0	2	510	517	509	31	0	
7	0	0	0	0	0	506	518	509	31	0	
8	0	0	0	0	0	499	515	510	31	0	
9	0	0	0	0	0	502	512	509	32	0	
10	0	0	0	0	0	501	511	510	31	0	
11	0	0	0	0	0	503	511	509	31	0	
12	0	0	0	0	0	506	511	508	31	0	
13	0	0	0	0	0	506	510	509	31	0	
14	0	0	0	0	2	505	510	510	31	0	
15	0	0	0	0	0	504	513	509	31	0	
0	0	0	0	0	0	505	512	509	31	0	
1	0	0	0	0	0	502	512	510	31	0	
2	0	0	0	0	0	503	511	508	31	0	
3	0	0	0	0	0	500	509	510	31	0	
4	0	0	0	0	0	502	511	507	31	0	
5	0	0	0	0	0	509	510	509	31	0	
6	0	0	0	0	2	508	511	509	31	0	
7	0	0	0	0	0	506	511	507	31	0	
8	0	0	0	0	0	509	513	510	31	0	
9	0	0	0	0	0	507	516	508	31	0	
10	0	0	0	0	0	504	512	509	31	0	
11	0	0	0	0	0	508	514	511	31	0	
12	0	0	0	0	0	508	513	508	31	0	
13	0	0	0	0	0	505	512	509	32	0	
14	0	0	0	0	2	508	510	511	31	0	
15	0	0	0	0	0	507	511	509	31	0	
0	0	0	0	0	0	505	513	509	31	0	
1	0	0	0	0	0	503	511	510	31	0	
2	0	0	0	0	0	502	510	510	31	0	
3	0	0	0	0	0	506	510	508	31	0	
4	0	0	0	0	0	506	509	509	31	0	
5	0	0	0	0	0	507	512	510	31	0	
6	0	0	0	0	2	505	515	508	31	0	
7	0	0	0	0	0	507	514	508	31	0	
8	0	0	0	0	0	505	511	511	31	0	
9	0	0	0	0	0	506	514	509	31	0	
10	0	0	0	0	0	506	514	509	31	0	
11	0	0	0	0	0	503	513	508	31	0	
12	0	0	0	0	0	504	513	511	31	0	
13	0	0	0	0	0	505	513	509	31	0	
14	0	0	0	0	2	504	516	509	31	0	
15	0	0	0	0	0	502	516	509	31	0	
0	0	0	0	0	0	502	517	508	31	0	
1	0	0	0	0	0	505	513	511	31	0	
2	0	0	0	0	0	504	508	511	32	0	
3	0	0	0	0	0	502	505	510	32	0	
4	0	0	0	0	0	504	507	510	31	0	
5	0	0	0	0	0	501	510	509	31	0	
6	0	0	0	0	2	502	512	509	31	0	
7	0	0	0	0	0	506	512	510	31	0	
8	0	0	0	0	0	505	508	509	31	0	
9	0	0	0	0	0	501	510	509	32	0	
10	0	0	0	0	0	502	510	508	31	0	
11	0	0	0	0	0	508	512	511	31	0	
12	0	0	0	0	0	508	513	508	31	0	
13	0	0	0	0	0	509	514	509	31	0	
14	0	0	0	0	2	511	514	509	31	0	
15	0	0	0	0	0	507	511	509	31	0	
0	0	0	0	0	0	506	512	511	31	0	
1	0	0	0	0	0	507	513	508	31	0	
2	0	0	0	0	0	509	514	510	31	0	
3	0	0	0	0	0	508	513	510	31	0	
4	0	0	0	0	0	504	512	508	31	0	
5	0	0	0	0	0	502	512	511	32	0	
6	0	0	0	0	3	502	510	509	31	0	
7	0	0	0	0	0	502	511	509	31	0	
8	0	0	0	0	0	502	511	509	31	0	
9	0	0	0	0	0	502	511	509	32	0	
10	0	0	0	0	0	505	511	510	31	0	
11	0	0	0	0	0	506	513	508	31	0	
12	0	0	0	0	0	507	516	510	31	0	
13	0	0	0	0	0	509	515	510	32	0	
14	0	0	0	0	3	508	511	509	31	0	
15	0	0	0	0	0	508	511	510	31	0	
0	0	0	0	0	0	506	512	510	31	0	
1	0	0	0	0	0	505	515	509	31	0	
2	0	0	0	0	0	507	511	509	31	0	
3	0	0	0	0	0	504	510	509	31	0	
4	0	0	0	0	0	507	513	510	32	0	
5	0	0	0	0	0	510	511	508	31	0	
6	0	0	0	0	1	508	513	509	31	0	
7	0	0	0	0	0	505	512	508	31	0	
8	0	0	0	0	0	504	511	508	31	0	
9	0	0	0	0	0	499	514	508	31	0	
10	0	0	0	0	0	501	513	511	31	0	
11	0	0	0	0	0	502	511	510	31	0	
12	0	0	0	0	0	503	510	510	31	0	
13	0	0	0	0	0	504	511	509	31	0	
14	0	0	0	0	1	503	511	509	32	0	
15	0	0	0	0	0	501	509	508	31	0	
0	0	0	0	0	0	508	509	509	31	0	
1	0	0	0	0	0	509	510	509	31	0	
2	0	0	0	0	0	504	513	509	32	0	
3	0	0	0	0	0	506	514	510	32	0	
4	0	0	0	0	0	507	516	510	31	0	
5	0	0	0	0	0	508	515	510	31	0	
6	0	0	0	0	1	504	517	509	31	0	
7	0	0	0	0	0	504	514	508	31	0	
8	0	0	0	0	0	505	511	510	31	0	
9	0	0	0	0	0	511	511	511	31	0	
10	0	0	0	0	0	508	510	510	31	0	
11	0	0	0	0	0	504	508	509	31	0	
12	0	0	0	0	0	506	507	508	32	0	
13	0	0	0	0	0	503	507	510	32	0	
14	0	0	0	0	2	501	510	509	32	0	
15	0	0	0	0	0	506	514	510	32	0	
0	0	0	0	0	0	505	514	510	32	0	
1	0	0	0	0	0	507	516	508	31	0	
2	0	0	0	0	0	506	514	509	31	0	
3	0	0	0	0	0	504	514	510	31	0	
4	0	0	0	0	0	504	514	510	31	0	
5	0	0	0	0	0	503	511	509	32	0	
6	0	0	0	0	3	503	509	508	32	0	
7	0	0	0	0	0	504	512	510	32	0	
8	0	0	0	0	0	507	513	509	31	0	
9	0	0	0	0	0	508	511	508	31	0	
10	0	0	0	0	0	507	508	509	31	0	
11	0	0	0	0	0	506	506	508	31	0	
12	0	0	0	0	0	502	508	510	31	0	
13	0	0	0	0	0	504	509	508	31	0	
14	0	0	0	0	3	501	512	510	32	0	
15	0	0	0	0	0	500	513	509	32	0	
0	0	0	0	0	0	500	515	509	32	0	
1	0	0	0	0	0	503	516	509	31	0	
2	0	0	0	0	0	505	515	508	31	0	
3	0	0	0	0	0	508	516	509	31	0	
4	0	0	0	0	0	507	516	509	31	0	
5	0	0	0	0	0	508	515	508	31	0	
6	0	0	0	0	2	508	513	510	31	0	
7	0	0	0	0	0	505	513	508	31	0	
8	0	0	0	0	0	506	511	509	31	0	
9	0	0	0	0	0	508	512	510	31	0	
10	0	0	0	0	0	510	511	508	32	0	
11	0	0	0	0	0	510	513	510	32	0	
12	0	0	0	0	0	507	514	508	31	0	
13	0	0	0	0	0	504	513	511	32	0	
14	0	0	0	0	2	502	510	509	32	0	
15	0	0	0	0	0	502	511	509	31	0	
0	0	0	0	0	0	502	512	509	31	0	
1	0	0	0	0	0	501	512	508	31	0	
2	0	0	0	0	0	504	511	509	31	0	
3	0	0	0	0	0	505	512	511	31	0	
4	0	0	0	0	0	504	511	508	31	0	
5	0	0	0	0	0	502	508	510	31	0	
6	0	0	0	0	3	503	508	509	32	0	
7	0	0	0	0	0	506	507	508	31	0	
8	0	0	0	0	0	504	509	508	32	0	
9	0	0	0	0	0	504	508	508	32	0	
10	0	0	0	0	0	506	511	512	32	0	
11	0	0	0	0	0	502	510	510	32	0	
12	0	0	0	0	0	504	512	509	31	0	
13	0	0	0	0	0	506	512	510	31	0	
14	0	0	0	0	2	504	513	508	31	0	
15	0	0	0	0	0	504	512	509	31	0	
0	0	0	0	0	0	507	513	508	31	0	
1	0	0	0	0	0	510	515	510	31	0	
2	0	0	0	0	0	508	516	510	31	0	
3	0	0	0	0	0	505	514	508	31	0	
4	0	0	0	0	0	507	515	509	31	0	
5	0	0	0	0	0	508	515	510	31	0	
6	0	0	0	0	2	508	513	510	31	0	
7	0	0	0	0	0	508	513	509	31	0	
8	0	0	0	0	0	505	513	508	31	0	
9	0	0	0	0	0	503	513	509	31	0	
10	0	0	0	0	0	500	514	508	31	0	
11	0	0	0	0	0	501	510	509	31	0	
12	0	0	0	0	0	501	509	508	32	0	
13	0	0	0	0	0	504	508	510	31	0	
14	0	0	0	0	2	506	512	509	31	0	
15	0	0	0	0	0	506	512	510	31	0	
0	0	0	0	0	0	504	510	509	32	0	
1	0	0	0	0	0	506	512	510	31	0	
2	0	0	0	0	0	505	514	509	31	0	
3	0	0	0	0	0	506	515	508	31	0	
4	0	0	0	0	0	506	513	511	31	0	
5	0	0	0	0	0	504	512	510	31	0	
6	0	0	0	0	2	504	509	510	31	0	
7	0	0	0	0	0	504	512	509	31	0	
8	0	0	0	0	0	504	509	509	31	0	
9	0	0	0	0	0	505	509	512	31	0	
10	0	0	0	0	0	505	509	509	32	0	
11	0	0	0	0	0	506	511	508	31	0	
12	0	0	0	0	0	505	513	509	31	0	
13	0	0	0	0	0	504	515	508	31	0	
14	0	0	0	0	2	505	513	510	31	0	
15	0	0	0	0	0	506	513	509	31	0	
0	0	0	0	0	0	504	515	508	31	0	
1	0	0	0	0	0	505	515	508	32	0	
2	0	0	0	0	0	506	513	510	32	0	
3	0	0	0	0	0	507	513	509	31	0	
4	0	0	0	0	0	506	513	508	31	0	
5	0	0	0	0	0	504	510	508	31	0	
6	0	0	0	0	1	505	509	509	31	0	
7	0	0	0	0	0	504	511	510	31	0	
8	0	0	0	0	0	507	515	508	31	0	
9	0	0	0	0	0	508	511	508	31	0	
10	0	0	0	0	0	506	511	511	32	0	
11	0	0	0	0	0	504	511	509	32	0	
12	0	0	0	0	0	503	512	512	31	0	
13	0	0	0	0	0	504	512	508	31	0	
14	0	0	0	0	1	507	512	509	31	0	
15	0	0	0	0	0	507	514	509	31	0	
0	0	0	0	0	0	505	515	508	31	0	
1	0	0	0	0	0	500	512	510	31	0	
2	0	0	0	0	0	505	512	508	31	0	
3	0	0	0	0	0	504	511	508	31	0	
4	0	0	0	0	0	504	508	510	31	0	
5	0	0	0	0	0	507	510	508	31	0	
6	0	0	0	0	1	507	511	510	31	0	
7	0	0	0	0	0	505	512	508	31	0	
8	0	0	0	0	0	501	512	510	31	0	
9	0	0	0	0	0	503	513	509	32	0	
10	0	0	0	0	0	505	514	509	31	0	
11	0	0	0	0	0	505	516	510	31	0	
12	0	0	0	0	0	505	512	509	31	0	
13	0	0	0	0	0	505	511	509	31	0	
14	0	0	0	0	3	504	512	510	31	0	
15	0	0	0	0	0	504	512	508	31	0	
0	0	0	0	0	0	504	515	511	31	0	
1	0	0	0	0	0	504	510	508	32	0	
2	0	0	0	0	0	504	510	510	32	0	
3	0	0	0	0	0	503	512	509	32	0	
4	0	0	0	0	0	503	510	508	32	0	
5	0	0	0	0	0	503	512	510	31	0	
6	0	0	0	0	3	506	511	507	31	0	
7	0	0	0	0	0	507	514	510	31	0	
8	0	0	0	0	0	508	511	509	31	0	
9	0	0	0	0	0	507	513	510	31	0	
10	0	0	0	0	0	509	512	510	31	0	
11	0	0	0	0	0	504	511	509	31	0	
12	0	0	0	0	0	503	512	511	31	0	
13	0	0	0	0	0	509	512	509	31	0	
14	0	0	0	0	2	506	512	508	31	0	
15	0	0	0	0	0	504	513	510	31	0	
0	0	0	0	0	0	505	513	508	31	0	
1	0	0	0	0	0	505	513	509	31	0	
2	0	0	0	0	0	505	512	510	31	0	
3	0	0	0	0	0	505	510	508	31	0	
4	0	0	0	0	0	505	510	510	31	0	
5	0	0	0	0	0	503	511	508	31	0	
6	0	0	0	0	2	504	511	510	31	0	
7	0	0	0	0	0	505	512	509	31	0	
8	0	0	0	0	0	507	514	510	31	0	
9	0	0	0	0	0	503	512	508	31	0	
10	0	0	0	0	0	504	512	511	31	0	
11	0	0	0	0	0	501	512	510	31	0	
12	0	0	0	0	0	505	512	508	31	0	
13	0	0	0	0	0	504	512	508	31	0	
14	0	0	0	0	2	505	513	509	31	0	
15	0	0	0	0	0	504	511	509	31	0	
0	0	0	0	0	0	505	513	509	31	0	
1	0	0	0	0	0	508	510	510	31	0	
2	0	0	0	0	0	509	510	508	31	0	
3	0	0	0	0	0	508	509	509	31	0	
4	0	0	0	0	0	505	510	508	31	0	
5	0	0	0	0	0	507	510	509	31	0	
6	0	0	0	0	2	506	513	510	31	0	
7	0	0	0	0	0	508	512	509	31	0	
8	0	0	0	0	0	505	512	510	31	0	
9	0	0	0	0	0	507	513	507	31	0	
10	0	0	0	0	0	507	511	509	32	0	
11	0	0	0	0	0	505	516	509	32	0	
12	0	0	0	0	0	503	512	509	31	0	
13	0	0	0	0	0	506	512	510	31	0	
14	0	0	0	0	3	504	511	507	31	0	
15	0	0	0	0	0	503	511	508	31	0	
0	0	0	0	0	0	503	510	510	31	0	
1	0	0	0	0	0	503	510	509	31	0	
2	0	0	0	0	0	503	509	510	31	0	
3	0	0	0	0	0	504	509	509	32	0	
4	0	0	0	0	0	504	513	510	32	0	
5	0	0	0	0	0	506	512	509	32	0	
6	0	0	0	0	2	508	512	509	31	0	
7	0	0	0	0	0	508	515	511	31	0	
8	0	0	0	0	0	506	513	508	31	0	
9	0	0	0	0	0	503	511	511	31	0	
10	0	0	0	0	0	500	511	509	31	0	
11	0	0	0	0	0	504	512	508	31	0	
12	0	0	0	0	0	502	516	511	31	0	
13	0	0	0	0	0	507	515	509	31	0	
14	0	0	0	0	2	508	515	509	31	0	
15	0	0	0	0	0	507	511	509	31	0	
0	0	0	0	0	0	505	511	510	31	0	
1	0	0	0	0	0	503	511	510	31	0	
2	0	0	0	0	0	505	511	508	31	0	
3	0	0	0	0	0	506	513	509	31	0	
4	0	0	0	0	0	507	513	508	31	0	
5	0	0	0	0	0	504	510	509	31	0	
6	0	0	0	0	2	504	512	510	31	0	
7	0	0	0	0	0	502	512	508	32	0	
8	0	0	0	0	0	505	511	508	31	0	
9	0	0	0	0	0	505	512	510	31	0	
10	0	0	0	0	0	504	512	509	31	0	
11	0	0	0	0	0	504	512	511	32	0	
12	0	0	0	0	0	505	514	508	31	0	
13	0	0	0	0	0	507	513	509	31	0	
14	0	0	0	0	2	506	510	510	31	0	
15	0	0	0	0	0	503	511	507	31	0	
0	0	0	0	0	0	503	512	510	31	0	
1	0	0	0	0	0	506	510	509	31	0	
2	0	0	0	0	0	507	511	509	31	0	
3	0	0	0	0	0	506	513	510	31	0	
4	0	0	0	0	0	504	512	508	31	0	
5	0	0	0	0	0	510	513	509	31	0	
6	0	0	0	0	1	506	514	510	31	0	
7	0	0	0	0	0	508	512	509	31	0	
8	0	0	0	0	0	506	510	509	31	0	
9	0	0	0	0	0	503	510	508	31	0	
10	0	0	0	0	0	504	511	509	31	0	
11	0	0	0	0	0	502	511	509	31	0	
12	0	0	0	0	0	504	512	510	31	0	
13	0	0	0	0	0	507	513	509	31	0	
14	0	0	0	0	1	507	510	508	31	0	
15	0	0	0	0	0	504	512	510	31	0	
0	0	0	0	0	0	505	514	510	31	0	
1	0	0	0	0	0	505	515	510	31	0	
2	0	0	0	0	0	505	515	511	31	0	
3	0	0	0	0	0	501	513	507	31	0	
4	0	0	0	0	0	505	512	510	31	0	
5	0	0	0	0	0	505	511	508	31	0	
6	0	0	0	0	2	507	513	511	31	0	
7	0	0	0	0	0	505	510	508	31	0	
8	0	0	0	0	0	504	508	508	31	0	
9	0	0	0	0	0	505	509	510	31	0	
10	0	0	0	0	0	505	508	508	32	0	
11	0	0	0	0	0	505	513	510	32	0	
12	0	0	0	0	0	501	512	508	32	0	
13	0	0	0	0	0	503	512	508	31	0	
14	0	0	0	0	2	503	514	510	31	0	
15	0	0	0	0	0	504	515	508	31	0	
0	0	0	0	0	0	504	512	510	31	0	
1	0	0	0	0	0	507	511	510	31	0	
2	0	0	0	0	0	507	511	509	31	0	
3	0	0	0	0	0	504	512	510	31	0	
4	0	0	0	0	0	504	512	508	32	0	
5	0	0	0	0	0	508	514	510	31	0	
6	0	0	0	0	2	506	514	509	31	0	
7	0	0	0	0	0	502	513	508	31	0	
8	0	0	0	0	0	502	511	510	31	0	
9	0	0	0	0	0	504	512	508	31	0	
