# OpenSignals Text File Format. Version 1
# {"98:D3:71:FE:38:C0": {"position": 0, "device": "bitalino_rev", "device name": "98:D3:71:FE:38:C0", "device connection": "BTH98:D3:71:FE:38:C0", "sampling rate": 1000, "resolution": [4, 1, 1, 1, 1, 10, 10, 10, 10, 6, 6], "firmware version": 1282, "comments": "", "keywords": "", "mode": 0, "sync interval": 2, "date": "2026-6-5", "time": "12:49:38.668", "channels": [1, 2, 3, 4, 5, 6], "sensor": ["RAW", "RAW", "RAW", "RAW", "RAW", "RAW"], "label": ["A1", "A2", "A3", "A4", "A5", "A6"], "column": ["nSeq", "I1", "I2", "O1", "O2", "A1", "A2", "A3", "A4", "A5", "A6"], "special": [{}, {}, {}, {}, {}, {}], "digital IO": [0, 0, 1, 1]}}
# EndOfHeader
0	0	0	0	0	1	504	511	511	31	0	
1	0	0	0	0	0	504	508	511	32	0	
2	0	0	0	0	0	504	512	511	31	0	
3	0	0	0	0	0	507	513	508	31	0	
4	0	0	0	0	0	505	512	508	31	0	
5	0	0	0	0	0	507	511	510	32	0	
6	0	0	0	0	0	504	510	511	31	0	
7	0	0	0	0	0	503	511	508	31	0	
8	0	0	0	0	1	505	514	508	31	0	
9	0	0	0	0	0	506	515	508	31	0	
10	0	0	0	0	0	506	513	507	31	0	
11	0	0	0	0	0	505	512	509	31	0	
12	0	0	0	0	0	507	513	507	31	0	
13	0	0	0	0	0	504	511	510	31	0	
14	0	0	0	0	0	505	512	510	31	0	
15	0	0	0	0	0	503	510	509	31	0	
0	0	0	0	0	1	504	511	508	31	0	
1	0	0	0	0	0	506	509	511	32	0	
2	0	0	0	0	0	504	512	511	32	0	
3	0	0	0	0	0	502	513	509	31	0	
4	0	0	0	0	0	504	510	510	31	0	
5	0	0	0	0	0	503	511	510	31	0	
6	0	0	0	0	0	504	511	508	31	0	
7	0	0	0	0	0	508	510	511	31	0	
8	0	0	0	0	0	507	512	507	31	0	
9	0	0	0	0	0	509	512	505	31	0	
10	0	0	0	0	0	506	512	509	31	0	
11	0	0	0	0	0	503	514	510	31	0	
12	0	0	0	0	0	504	513	512	31	0	
13	0	0	0	0	0	506	513	511	31	0	
14	0	0	0	0	0	506	515	508	31	0	
15	0	0	0	0	0	507	515	508	31	0	
0	0	0	0	0	0	505	515	509	31	0	
1	0	0	0	0	0	505	516	510	31	0	
2	0	0	0	0	0	505	512	507	31	0	
3	0	0	0	0	0	505	511	508	31	0	
4	0	0	0	0	0	505	511	508	31	0	
5	0	0	0	0	0	504	510	509	31	0	
6	0	0	0	0	0	503	512	509	31	0	
7	0	0	0	0	0	503	511	508	31	0	
8	0	0	0	0	0	502	511	510	31	0	
9	0	0	0	0	0	507	511	509	31	0	
10	0	0	0	0	0	505	512	510	31	0	
11	0	0	0	0	0	504	511	508	31	0	
12	0	0	0	0	0	506	511	507	31	0	
13	0	0	0	0	0	504	512	508	31	0	
14	0	0	0	0	0	505	510	511	31	0	
15	0	0	0	0	0	507	509	510	32	0	
0	0	0	0	0	1	504	510	511	31	0	
1	0	0	0	0	0	503	510	509	31	0	
2	0	0	0	0	0	507	511	509	31	0	
3	0	0	0	0	0	503	512	512	31	0	
4	0	0	0	0	0	504	513	513	31	0	
5	0	0	0	0	0	504	512	510	31	0	
6	0	0	0	0	0	506	513	510	31	0	
7	0	0	0	0	0	504	511	509	31	0	
8	0	0	0	0	1	504	512	509	31	0	
9	0	0	0	0	0	505	512	510	31	0	
10	0	0	0	0	0	506	513	509	31	0	
11	0	0	0	0	0	504	513	508	31	0	
12	0	0	0	0	0	505	514	508	31	0	
13	0	0	0	0	0	508	514	505	31	0	
14	0	0	0	0	0	505	515	506	31	0	
15	0	0	0	0	0	506	512	510	31	0	
0	0	0	0	0	1	504	511	509	31	0	
1	0	0	0	0	0	507	511	507	31	0	
2	0	0	0	0	0	504	511	510	31	0	
3	0	0	0	0	0	504	509	512	31	0	
4	0	0	0	0	0	504	513	512	31	0	
5	0	0	0	0	0	504	510	511	31	0	
6	0	0	0	0	0	503	511	510	31	0	
7	0	0	0	0	0	503	514	509	31	0	
8	0	0	0	0	1	506	512	511	31	0	
9	0	0	0	0	0	505	509	510	31	0	
10	0	0	0	0	0	506	512	510	31	0	
11	0	0	0	0	0	506	511	508	31	0	
12	0	0	0	0	0	508	513	508	31	0	
13	0	0	0	0	0	507	511	507	31	0	
14	0	0	0	0	0	506	514	505	31	0	
15	0	0	0	0	0	504	514	507	31	0	
0	0	0	0	0	1	507	513	509	31	0	
1	0	0	0	0	0	504	515	510	31	0	
2	0	0	0	0	0	503	513	510	31	0	
3	0	0	0	0	0	503	514	511	31	0	
4	0	0	0	0	0	504	513	508	31	0	
5	0	0	0	0	0	503	512	507	31	0	
6	0	0	0	0	0	507	511	509	31	0	
7	0	0	0	0	0	505	512	509	31	0	
8	0	0	0	0	1	507	512	511	32	0	
9	0	0	0	0	0	505	513	510	31	0	
10	0	0	0	0	0	505	511	508	31	0	
11	0	0	0	0	0	505	512	508	31	0	
12	0	0	0	0	0	504	513	508	31	0	
13	0	0	0	0	0	504	512	508	31	0	
14	0	0	0	0	0	504	511	509	31	0	
15	0	0	0	0	0	507	511	510	31	0	
0	0	0	0	0	1	503	512	511	31	0	
1	0	0	0	0	0	505	510	511	32	0	
2	0	0	0	0	0	506	511	511	32	0	
3	0	0	0	0	0	504	511	508	31	0	
4	0	0	0	0	0	504	511	507	31	0	
5	0	0	0	0	0	505	511	510	31	0	
6	0	0	0	0	0	505	511	510	31	0	
7	0	0	0	0	0	507	513	508	31	0	
8	0	0	0	0	1	505	511	508	31	0	
9	0	0	0	0	0	507	512	508	31	0	
10	0	0	0	0	0	505	511	511	31	0	
11	0	0	0	0	0	504	512	511	31	0	
12	0	0	0	0	0	505	516	510	31	0	
13	0	0	0	0	0	504	513	509	31	0	
14	0	0	0	0	0	504	513	508	31	0	
15	0	0	0	0	0	505	515	509	31	0	
0	0	0	0	0	1	507	514	506	31	0	
1	0	0	0	0	0	505	512	510	31	0	
2	0	0	0	0	0	507	515	509	31	0	
3	0	0	0	0	0	507	511	509	31	0	
4	0	0	0	0	0	506	511	511	31	0	
5	0	0	0	0	0	503	510	511	31	0	
6	0	0	0	0	0	504	512	509	31	0	
7	0	0	0	0	0	502	511	512	31	0	
8	0	0	0	0	1	505	512	511	32	0	
9	0	0	0	0	0	502	509	511	32	0	
10	0	0	0	0	0	504	511	508	31	0	
11	0	0	0	0	0	507	512	507	31	0	
12	0	0	0	0	0	505	512	509	31	0	
13	0	0	0	0	0	505	510	508	31	0	
14	0	0	0	0	0	505	511	508	31	0	
15	0	0	0	0	0	506	514	510	31	0	
0	0	0	0	0	1	505	513	509	31	0	
1	0	0	0	0	0	505	512	506	31	0	
2	0	0	0	0	0	505	511	508	31	0	
3	0	0	0	0	0	504	511	510	31	0	
4	0	0	0	0	0	505	513	508	31	0	
5	0	0	0	0	0	506	512	511	31	0	
6	0	0	0	0	0	504	513	508	31	0	
7	0	0	0	0	0	506	512	510	31	0	
8	0	0	0	0	1	507	514	505	31	0	
9	0	0	0	0	0	505	514	510	31	0	
10	0	0	0	0	0	507	512	510	31	0	
11	0	0	0	0	0	507	512	507	31	0	
12	0	0	0	0	0	508	514	509	31	0	
13	0	0	0	0	0	506	511	510	31	0	
14	0	0	0	0	0	505	511	510	31	0	
15	0	0	0	0	0	505	511	510	32	0	
0	0	0	0	0	1	505	510	512	31	0	
1	0	0	0	0	0	504	512	509	31	0	
2	0	0	0	0	0	505	513	507	31	0	
3	0	0	0	0	0	505	515	510	31	0	
4	0	0	0	0	0	505	516	508	31	0	
5	0	0	0	0	0	507	515	505	31	0	
6	0	0	0	0	0	507	513	507	31	0	
7	0	0	0	0	0	506	511	508	31	0	
8	0	0	0	0	1	504	511	509	31	0	
9	0	0	0	0	0	505	512	508	31	0	
10	0	0	0	0	0	504	508	510	31	0	
11	0	0	0	0	0	502	507	511	32	0	
12	0	0	0	0	0	502	510	511	31	0	
13	0	0	0	0	0	505	512	511	31	0	
14	0	0	0	0	0	504	512	508	31	0	
15	0	0	0	0	0	505	514	508	31	0	
0	0	0	0	0	1	505	513	510	31	0	
1	0	0	0	0	0	506	515	510	31	0	
2	0	0	0	0	0	505	513	509	31	0	
3	0	0	0	0	0	507	516	510	31	0	
4	0	0	0	0	0	504	511	510	31	0	
5	0	0	0	0	0	507	512	509	31	0	
6	0	0	0	0	0	506	511	508	31	0	
7	0	0	0	0	0	504	511	507	31	0	
8	0	0	0	0	1	505	512	505	31	0	
9	0	0	0	0	0	507	512	510	31	0	
10	0	0	0	0	0	502	512	512	31	0	
11	0	0	0	0	0	503	509	512	31	0	
12	0	0	0	0	0	504	509	509	31	0	
13	0	0	0	0	0	504	512	509	31	0	
14	0	0	0	0	0	504	510	510	31	0	
15	0	0	0	0	0	505	511	510	31	0	
0	0	0	0	0	1	504	510	510	31	0	
1	0	0	0	0	0	504	513	508	31	0	
2	0	0	0	0	0	507	515	510	31	0	
3	0	0	0	0	0	507	513	508	31	0	
4	0	0	0	0	0	508	513	506	31	0	
5	0	0	0	0	0	505	511	509	31	0	
6	0	0	0	0	0	504	510	508	31	0	
7	0	0	0	0	0	505	512	509	31	0	
8	0	0	0	0	1	504	513	509	31	0	
9	0	0	0	0	0	505	511	508	31	0	
10	0	0	0	0	0	505	511	508	31	0	
11	0	0	0	0	0	507	510	510	31	0	
12	0	0	0	0	0	506	515	510	32	0	
13	0	0	0	0	0	504	512	508	31	0	
14	0	0	0	0	0	505	512	508	31	0	
15	0	0	0	0	0	507	512	510	31	0	
0	0	0	0	0	1	507	513	508	31	0	
1	0	0	0	0	0	504	513	509	31	0	
2	0	0	0	0	0	504	512	509	31	0	
3	0	0	0	0	0	503	511	509	31	0	
4	0	0	0	0	0	504	510	511	31	0	
5	0	0	0	0	0	507	512	510	31	0	
6	0	0	0	0	0	506	512	510	31	0	
7	0	0	0	0	0	504	515	510	31	0	
8	0	0	0	0	1	504	513	509	31	0	
9	0	0	0	0	0	505	512	508	31	0	
10	0	0	0	0	0	504	512	510	31	0	
11	0	0	0	0	0	507	510	511	31	0	
12	0	0	0	0	0	505	511	512	31	0	
13	0	0	0	0	0	506	513	511	31	0	
14	0	0	0	0	0	505	512	510	31	0	
15	0	0	0	0	0	505	513	508	31	0	
0	0	0	0	0	1	504	512	507	31	0	
1	0	0	0	0	0	504	511	508	31	0	
2	0	0	0	0	0	505	512	509	31	0	
3	0	0	0	0	0	503	511	510	31	0	
4	0	0	0	0	0	506	513	509	31	0	
5	0	0	0	0	0	505	513	511	31	0	
6	0	0	0	0	0	504	511	511	31	0	
7	0	0	0	0	0	505	512	508	31	0	
8	0	0	0	0	1	505	513	510	31	0	
9	0	0	0	0	0	504	513	508	31	0	
10	0	0	0	0	0	507	515	509	31	0	
11	0	0	0	0	0	504	513	509	31	0	
12	0	0	0	0	0	504	512	510	31	0	
13	0	0	0	0	0	503	511	508	31	0	
14	0	0	0	0	0	505	514	507	31	0	
15	0	0	0	0	0	507	513	507	31	0	
0	0	0	0	0	1	505	513	508	31	0	
1	0	0	0	0	0	507	512	509	31	0	
2	0	0	0	0	0	506	511	508	31	0	
3	0	0	0	0	0	504	510	508	31	0	
4	0	0	0	0	0	504	510	510	31	0	
5	0	0	0	0	0	505	509	510	31	0	
6	0	0	0	0	0	503	512	511	31	0	
7	0	0	0	0	0	505	508	510	31	0	
8	0	0	0	0	1	506	511	508	31	0	
9	0	0	0	0	0	507	511	508	32	0	
10	0	0	0	0	0	505	509	509	31	0	
11	0	0	0	0	0	504	510	512	31	0	
12	0	0	0	0	0	504	510	513	32	0	
13	0	0	0	0	0	503	513	510	31	0	
14	0	0	0	0	0	504	511	509	31	0	
15	0	0	0	0	0	505	513	510	31	0	
0	0	0	0	0	0	507	514	509	32	0	
1	0	0	0	0	0	505	513	508	31	0	
2	0	0	0	0	0	503	511	508	31	0	
3	0	0	0	0	0	504	515	507	31	0	
4	0	0	0	0	0	504	514	506	31	0	
5	0	0	0	0	0	504	511	511	31	0	
6	0	0	0	0	0	506	512	510	31	0	
7	0	0	0	0	0	506	512	509	31	0	
8	0	0	0	0	0	506	511	510	31	0	
9	0	0	0	0	0	505	511	509	31	0	
10	0	0	0	0	0	505	512	509	31	0	
11	0	0	0	0	0	504	513	510	32	0	
12	0	0	0	0	0	505	513	511	31	0	
13	0	0	0	0	0	505	515	511	31	0	
14	0	0	0	0	0	505	511	511	31	0	
15	0	0	0	0	0	507	513	510	31	0	
0	0	0	0	0	0	507	512	506	31	0	
1	0	0	0	0	0	507	514	507	31	0	
2	0	0	0	0	0	505	512	509	31	0	
3	0	0	0	0	0	505	511	507	31	0	
4	0	0	0	0	0	506	512	508	31	0	
5	0	0	0	0	0	505	512	508	31	0	
6	0	0	0	0	0	505	512	506	31	0	
7	0	0	0	0	0	504	511	508	31	0	
8	0	0	0	0	1	504	510	511	32	0	
9	0	0	0	0	0	503	511	508	31	0	
10	0	0	0	0	0	503	513	510	31	0	
11	0	0	0	0	0	504	512	512	31	0	
12	0	0	0	0	0	502	512	511	31	0	
13	0	0	0	0	0	503	510	510	31	0	
14	0	0	0	0	0	502	509	510	32	0	
15	0	0	0	0	0	504	513	509	31	0	
0	0	0	0	0	1	502	512	509	31	0	
1	0	0	0	0	0	504	515	511	31	0	
2	0	0	0	0	0	507	513	505	31	0	
3	0	0	0	0	0	509	511	507	31	0	
4	0	0	0	0	0	505	511	507	31	0	
5	0	0	0	0	0	506	512	510	31	0	
6	0	0	0	0	0	505	513	511	31	0	
7	0	0	0	0	0	505	513	511	31	0	
8	0	0	0	0	1	507	512	508	31	0	
9	0	0	0	0	0	507	513	508	32	0	
10	0	0	0	0	0	505	510	509	31	0	
11	0	0	0	0	0	503	510	511	31	0	
12	0	0	0	0	0	505	511	511	31	0	
13	0	0	0	0	0	505	514	508	31	0	
14	0	0	0	0	0	505	512	508	31	0	
15	0	0	0	0	0	505	512	509	31	0	
0	0	0	0	0	1	506	511	509	31	0	
1	0	0	0	0	0	507	513	508	31	0	
2	0	0	0	0	0	505	511	507	31	0	
3	0	0	0	0	0	505	510	508	31	0	
4	0	0	0	0	0	504	513	509	31	0	
5	0	0	0	0	0	506	512	511	31	0	
6	0	0	0	0	0	504	512	510	31	0	
7	0	0	0	0	0	504	515	510	31	0	
8	0	0	0	0	1	505	512	509	31	0	
9	0	0	0	0	0	504	511	510	31	0	
10	0	0	0	0	0	504	510	508	31	0	
11	0	0	0	0	0	504	513	508	31	0	
12	0	0	0	0	0	502	511	511	31	0	
13	0	0	0	0	0	505	511	511	31	0	
14	0	0	0	0	0	504	510	508	32	0	
15	0	0	0	0	0	506	511	511	31	0	
0	0	0	0	0	1	504	511	510	31	0	
1	0	0	0	0	0	505	513	509	31	0	
2	0	0	0	0	0	502	513	509	31	0	
3	0	0	0	0	0	504	512	510	31	0	
4	0	0	0	0	0	506	514	508	31	0	
5	0	0	0	0	0	505	511	507	31	0	
6	0	0	0	0	0	507	514	507	31	0	
7	0	0	0	0	0	506	511	508	31	0	
8	0	0	0	0	1	508	511	509	31	0	
9	0	0	0	0	0	506	513	508	31	0	
10	0	0	0	0	0	505	514	507	31	0	
11	0	0	0	0	0	504	513	510	31	0	
12	0	0	0	0	0	504	513	508	31	0	
13	0	0	0	0	0	505	512	511	31	0	
14	0	0	0	0	0	505	512	509	31	0	
15	0	0	0	0	0	505	512	506	31	0	
0	0	0	0	0	1	507	511	509	31	0	
1	0	0	0	0	0	504	510	510	31	0	
2	0	0	0	0	0	504	510	512	31	0	
3	0	0	0	0	0	503	511	511	31	0	
4	0	0	0	0	0	503	511	512	31	0	
5	0	0	0	0	0	501	511	512	31	0	
6	0	0	0	0	0	502	513	511	31	0	
7	0	0	0	0	0	503	511	509	31	0	
8	0	0	0	0	1	506	513	510	31	0	
9	0	0	0	0	0	505	512	511	31	0	
10	0	0	0	0	0	505	514	512	31	0	
11	0	0	0	0	0	508	513	508	31	0	
12	0	0	0	0	0	507	512	505	31	0	
13	0	0	0	0	0	508	511	509	31	0	
14	0	0	0	0	0	506	511	508	32	0	
15	0	0	0	0	0	506	510	509	31	0	
0	0	0	0	0	1	504	513	510	31	0	
1	0	0	0	0	0	504	512	508	31	0	
2	0	0	0	0	0	507	514	508	31	0	
3	0	0	0	0	0	503	514	508	31	0	
4	0	0	0	0	0	504	514	508	31	0	
5	0	0	0	0	0	504	513	507	31	0	
6	0	0	0	0	0	506	513	511	31	0	
7	0	0	0	0	0	503	513	512	31	0	
8	0	0	0	0	1	503	512	511	32	0	
9	0	0	0	0	0	507	512	510	31	0	
10	0	0	0	0	0	509	509	508	32	0	
11	0	0	0	0	0	510	512	510	32	0	
12	0	0	0	0	0	507	511	510	32	0	
13	0	0	0	0	0	507	511	511	32	0	
14	0	0	0	0	0	507	512	506	31	0	
15	0	0	0	0	0	504	512	507	31	0	
0	0	0	0	0	1	508	513	506	31	0	
1	0	0	0	0	0	505	515	506	31	0	
2	0	0	0	0	0	503	513	507	31	0	
3	0	0	0	0	0	504	511	507	31	0	
4	0	0	0	0	0	502	510	506	31	0	
5	0	0	0	0	0	505	511	508	31	0	
6	0	0	0	0	0	504	510	512	31	0	
7	0	0	0	0	0	503	510	511	31	0	
8	0	0	0	0	1	504	510	509	31	0	
9	0	0	0	0	0	505	511	507	31	0	
10	0	0	0	0	0	504	512	508	31	0	
11	0	0	0	0	0	505	513	510	31	0	
12	0	0	0	0	0	505	512	511	31	0	
13	0	0	0	0	0	503	514	509	31	0	
14	0	0	0	0	0	504	515	508	31	0	
15	0	0	0	0	0	505	516	512	31	0	
0	0	0	0	0	1	504	514	512	31	0	
1	0	0	0	0	0	504	511	509	31	0	
2	0	0	0	0	0	504	510	511	31	0	
3	0	0	0	0	0	504	511	508	31	0	
4	0	0	0	0	0	504	510	510	31	0	
5	0	0	0	0	0	506	511	509	31	0	
6	0	0	0	0	0	505	511	509	31	0	
7	0	0	0	0	0	504	511	510	31	0	
8	0	0	0	0	1	508	513	511	31	0	
9	0	0	0	0	0	505	513	510	31	0	
10	0	0	0	0	0	504	513	512	32	0	
11	0	0	0	0	0	505	511	511	31	0	
12	0	0	0	0	0	506	513	508	31	0	
13	0	0	0	0	0	505	512	508	31	0	
14	0	0	0	0	0	505	512	509	31	0	
15	0	0	0	0	0	507	513	508	31	0	
0	0	0	0	0	1	506	511	508	31	0	
1	0	0	0	0	0	504	511	512	31	0	
2	0	0	0	0	0	504	510	509	32	0	
3	0	0	0	0	0	505	511	511	32	0	
4	0	0	0	0	0	507	512	510	31	0	
5	0	0	0	0	0	503	511	513	32	0	
6	0	0	0	0	0	504	513	512	31	0	
7	0	0	0	0	0	505	515	508	31	0	
8	0	0	0	0	1	508	512	510	31	0	
9	0	0	0	0	0	505	512	507	31	0	
10	0	0	0	0	0	505	512	508	31	0	
11	0	0	0	0	0	506	511	511	31	0	
12	0	0	0	0	0	504	510	511	32	0	
13	0	0	0	0	0	503	511	511	31	0	
14	0	0	0	0	0	506	513	510	31	0	
15	0	0	0	0	0	505	512	509	31	0	
0	0	0	0	0	1	504	513	507	31	0	
1	0	0	0	0	0	507	513	508	31	0	
2	0	0	0	0	0	504	513	508	31	0	
3	0	0	0	0	0	506	515	508	31	0	
4	0	0	0	0	0	503	513	509	31	0	
5	0	0	0	0	0	504	512	510	31	0	
6	0	0	0	0	0	504	515	509	31	0	
7	0	0	0	0	0	505	515	508	31	0	
8	0	0	0	0	1	508	514	508	31	0	
9	0	0	0	0	0	508	513	508	31	0	
10	0	0	0	0	0	506	510	508	31	0	
11	0	0	0	0	0	506	510	508	31	0	
12	0	0	0	0	0	504	508	508	31	0	
13	0	0	0	0	0	503	510	511	32	0	
14	0	0	0	0	0	505	511	509	32	0	
15	0	0	0	0	0	503	511	513	31	0	
0	0	0	0	0	1	504	509	513	32	0	
1	0	0	0	0	0	504	512	511	31	0	
2	0	0	0	0	0	503	512	510	31	0	
3	0	0	0	0	0	503	512	508	31	0	
4	0	0	0	0	0	505	513	507	31	0	
5	0	0	0	0	0	505	512	506	31	0	
6	0	0	0	0	0	507	512	509	31	0	
7	0	0	0	0	0	505	511	511	31	0	
8	0	0	0	0	1	503	510	511	31	0	
9	0	0	0	0	0	506	512	508	31	0	
10	0	0	0	0	0	507	512	510	31	0	
11	0	0	0	0	0	507	514	508	31	0	
12	0	0	0	0	0	505	513	508	31	0	
13	0	0	0	0	0	505	512	510	31	0	
14	0	0	0	0	0	507	513	509	31	0	
15	0	0	0	0	0	505	514	509	31	0	
0	0	0	0	0	1	506	515	507	31	0	
1	0	0	0	0	0	507	512	511	31	0	
2	0	0	0	0	0	506	512	509	31	0	
3	0	0	0	0	0	505	512	507	31	0	
4	0	0	0	0	0	507	513	505	31	0	
5	0	0	0	0	0	503	513	504	31	0	
6	0	0	0	0	0	505	513	510	31	0	
7	0	0	0	0	0	504	512	509	31	0	
8	0	0	0	0	1	505	513	508	31	0	
9	0	0	0	0	0	506	512	508	31	0	
10	0	0	0	0	0	507	511	511	31	0	
11	0	0	0	0	0	503	511	510	31	0	
12	0	0	0	0	0	503	510	511	31	0	
13	0	0	0	0	0	503	509	512	31	0	
14	0	0	0	0	0	501	508	512	31	0	
15	0	0	0	0	0	503	509	508	32	0	
0	0	0	0	0	1	507	511	507	31	0	
1	0	0	0	0	0	508	512	510	31	0	
2	0	0	0	0	0	507	511	510	32	0	
3	0	0	0	0	0	505	512	508	31	0	
4	0	0	0	0	0	507	513	507	31	0	
5	0	0	0	0	0	504	512	511	31	0	
6	0	0	0	0	0	502	511	512	31	0	
7	0	0	0	0	0	502	513	511	31	0	
8	0	0	0	0	1	502	512	511	31	0	
9	0	0	0	0	0	505	515	510	31	0	
10	0	0	0	0	0	504	515	508	31	0	
11	0	0	0	0	0	506	514	507	31	0	
12	0	0	0	0	0	505	512	508	31	0	
13	0	0	0	0	0	505	511	509	31	0	
14	0	0	0	0	0	509	512	508	31	0	
15	0	0	0	0	0	508	512	509	32	0	
0	0	0	0	0	0	507	512	509	31	0	
1	0	0	0	0	0	504	513	510	31	0	
2	0	0	0	0	0	504	512	508	31	0	
3	0	0	0	0	0	504	511	511	31	0	
4	0	0	0	0	0	502	511	511	31	0	
5	0	0	0	0	0	504	508	509	31	0	
6	0	0	0	0	0	502	510	507	31	0	
7	0	0	0	0	0	505	511	508	31	0	
8	0	0	0	0	0	505	512	508	31	0	
9	0	0	0	0	0	507	511	508	31	0	
10	0	0	0	0	0	502	511	507	31	0	
11	0	0	0	0	0	504	511	507	31	0	
12	0	0	0	0	0	505	511	508	31	0	
13	0	0	0	0	0	506	512	507	31	0	
14	0	0	0	0	0	506	514	510	31	0	
15	0	0	0	0	0	505	512	508	31	0	
0	0	0	0	0	1	506	513	510	31	0	
1	0	0	0	0	0	505	516	512	31	0	
2	0	0	0	0	0	506	513	508	31	0	
3	0	0	0	0	0	506	515	510	31	0	
4	0	0	0	0	0	506	515	508	31	0	
5	0	0	0	0	0	504	511	509	31	0	
6	0	0	0	0	0	505	513	508	31	0	
7	0	0	0	0	0	504	512	508	31	0	
8	0	0	0	0	1	505	515	508	31	0	
9	0	0	0	0	0	506	515	508	31	0	
10	0	0	0	0	0	504	510	511	31	0	
11	0	0	0	0	0	505	508	510	31	0	
12	0	0	0	0	0	503	510	510	31	0	
13	0	0	0	0	0	504	512	510	31	0	
14	0	0	0	0	0	504	510	511	31	0	
15	0	0	0	0	0	504	512	511	31	0	
0	0	0	0	0	1	503	511	508	31	0	
1	0	0	0	0	0	505	510	511	31	0	
2	0	0	0	0	0	507	508	511	31	0	
3	0	0	0	0	0	508	512	511	31	0	
4	0	0	0	0	0	505	511	509	31	0	
5	0	0	0	0	0	508	511	510	31	0	
6	0	0	0	0	0	506	513	509	31	0	
7	0	0	0	0	0	505	513	512	31	0	
8	0	0	0	0	1	506	513	510	31	0	
9	0	0	0	0	0	507	514	508	31	0	
10	0	0	0	0	0	504	514	510	31	0	
11	0	0	0	0	0	504	514	510	31	0	
12	0	0	0	0	0	505	511	510	31	0	
13	0	0	0	0	0	505	512	510	31	0	
14	0	0	0	0	0	507	511	508	31	0	
15	0	0	0	0	0	504	511	509	31	0	
0	0	0	0	0	1	504	511	511	31	0	
1	0	0	0	0	0	504	510	510	31	0	
2	0	0	0	0	0	503	513	508	31	0	
3	0	0	0	0	0	504	513	509	31	0	
4	0	0	0	0	0	504	512	510	31	0	
5	0	0	0	0	0	504	512	508	31	0	
6	0	0	0	0	0	506	512	508	31	0	
7	0	0	0	0	0	504	511	508	31	0	
8	0	0	0	0	1	503	510	509	31	0	
9	0	0	0	0	0	502	510	509	31	0	
10	0	0	0	0	0	502	511	510	31	0	
11	0	0	0	0	0	506	512	508	31	0	
12	0	0	0	0	0	507	513	508	31	0	
13	0	0	0	0	0	507	514	509	31	0	
14	0	0	0	0	0	507	513	507	31	0	
15	0	0	0	0	0	507	512	512	31	0	
0	0	0	0	0	1	504	515	508	31	0	
1	0	0	0	0	0	507	512	508	31	0	
2	0	0	0	0	0	505	511	508	31	0	
3	0	0	0	0	0	506	515	508	31	0	
4	0	0	0	0	0	504	513	508	31	0	
5	0	0	0	0	0	504	515	511	32	0	
6	0	0	0	0	0	505	511	511	31	0	
7	0	0	0	0	0	506	512	512	32	0	
8	0	0	0	0	1	504	513	507	31	0	
9	0	0	0	0	0	505	512	508	31	0	
10	0	0	0	0	0	505	511	508	31	0	
11	0	0	0	0	0	506	512	509	31	0	
12	0	0	0	0	0	506	513	510	31	0	
13	0	0	0	0	0	504	512	507	31	0	
14	0	0	0	0	0	508	512	507	31	0	
15	0	0	0	0	0	504	509	508	31	0	
0	0	0	0	0	1	503	511	508	31	0	
1	0	0	0	0	0	504	510	511	31	0	
2	0	0	0	0	0	504	511	510	31	0	
3	0	0	0	0	0	504	513	510	31	0	
4	0	0	0	0	0	505	513	511	31	0	
5	0	0	0	0	0	504	512	511	31	0	
6	0	0	0	0	0	507	510	507	31	0	
7	0	0	0	0	0	505	510	510	31	0	
8	0	0	0	0	1	505	514	507	31	0	
9	0	0	0	0	0	506	513	508	31	0	
10	0	0	0	0	0	504	512	508	31	0	
11	0	0	0	0	0	503	509	511	32	0	
12	0	0	0	0	0	502	510	510	31	0	
13	0	0	0	0	0	503	511	509	31	0	
14	0	0	0	0	0	504	511	511	31	0	
15	0	0	0	0	0	506	510	510	31	0	
0	0	0	0	0	1	504	512	510	31	0	
1	0	0	0	0	0	504	511	511	32	0	
2	0	0	0	0	0	507	512	511	31	0	
3	0	0	0	0	0	506	511	509	31	0	
4	0	0	0	0	0	506	510	509	31	0	
5	0	0	0	0	0	504	512	510	31	0	
6	0	0	0	0	0	506	512	506	31	0	
7	0	0	0	0	0	505	514	508	31	0	
8	0	0	0	0	1	507	512	508	31	0	
9	0	0	0	0	0	505	511	507	31	0	
10	0	0	0	0	0	504	513	508	31	0	
11	0	0	0	0	0	504	512	510	31	0	
12	0	0	0	0	0	505	513	512	31	0	
13	0	0	0	0	0	504	512	511	32	0	
14	0	0	0	0	0	504	513	510	31	0	
15	0	0	0	0	0	505	512	509	31	0	
0	0	0	0	0	1	505	511	510	31	0	
1	0	0	0	0	0	507	513	508	31	0	
2	0	0	0	0	0	509	515	509	31	0	
3	0	0	0	0	0	507	515	508	31	0	
4	0	0	0	0	0	507	513	510	31	0	
5	0	0	0	0	0	504	512	511	31	0	
6	0	0	0	0	0	505	512	510	31	0	
7	0	0	0	0	0	506	513	510	31	0	
8	0	0	0	0	1	503	514	508	31	0	
9	0	0	0	0	0	505	514	509	31	0	
10	0	0	0	0	0	506	510	509	31	0	
11	0	0	0	0	0	505	511	506	31	0	
12	0	0	0	0	0	501	510	508	31	0	
13	0	0	0	0	0	504	510	508	31	0	
14	0	0	0	0	0	502	509	509	31	0	
15	0	0	0	0	0	504	512	510	31	0	
0	0	0	0	0	1	504	511	513	31	0	
1	0	0	0	0	0	504	512	512	31	0	
2	0	0	0	0	0	504	512	512	31	0	
3	0	0	0	0	0	507	510	510	31	0	
4	0	0	0	0	0	507	512	510	31	0	
5	0	0	0	0	0	507	511	510	31	0	
6	0	0	0	0	0	506	514	509	31	0	
7	0	0	0	0	0	505	512	508	31	0	
8	0	0	0	0	1	504	513	509	31	0	
9	0	0	0	0	0	502	513	510	31	0	
10	0	0	0	0	0	504	513	509	31	0	
11	0	0	0	0	0	507	514	505	31	0	
12	0	0	0	0	0	508	510	505	31	0	
13	0	0	0	0	0	508	511	506	31	0	
14	0	0	0	0	0	507	510	509	31	0	
15	0	0	0	0	0	505	511	510	31	0	
0	0	0	0	0	1	504	511	510	31	0	
1	0	0	0	0	0	504	513	511	31	0	
2	0	0	0	0	0	503	512	511	31	0	
3	0	0	0	0	0	504	509	512	32	0	
4	0	0	0	0	0	503	512	511	32	0	
5	0	0	0	0	0	504	511	512	31	0	
6	0	0	0	0	0	504	511	510	31	0	
7	0	0	0	0	0	507	511	508	31	0	
8	0	0	0	0	1	506	512	507	31	0	
9	0	0	0	0	0	506	512	508	31	0	
10	0	0	0	0	0	506	513	507	31	0	
11	0	0	0	0	0	507	513	507	31	0	
12	0	0	0	0	0	507	513	508	31	0	
13	0	0	0	0	0	507	513	508	31	0	
14	0	0	0	0	0	505	512	507	31	0	
15	0	0	0	0	0	503	511	510	31	0	
0	0	0	0	0	1	502	512	510	31	0	
1	0	0	0	0	0	504	515	508	31	0	
2	0	0	0	0	0	505	512	508	31	0	
3	0	0	0	0	0	504	511	508	31	0	
4	0	0	0	0	0	503	511	512	32	0	
5	0	0	0	0	0	504	509	509	31	0	
6	0	0	0	0	0	508	512	510	31	0	
7	0	0	0	0	0	507	512	510	31	0	
8	0	0	0	0	1	508	513	510	31	0	
9	0	0	0	0	0	507	513	509	31	0	
10	0	0	0	0	0	504	512	508	31	0	
11	0	0	0	0	0	505	512	511	31	0	
12	0	0	0	0	0	504	515	509	31	0	
13	0	0	0	0	0	504	514	510	31	0	
14	0	0	0	0	0	504	512	509	31	0	
15	0	0	0	0	0	504	511	509	31	0	
0	0	0	0	0	1	504	511	510	31	0	
1	0	0	0	0	0	504	511	509	31	0	
2	0	0	0	0	0	505	511	507	31	0	
3	0	0	0	0	0	507	511	508	31	0	
4	0	0	0	0	0	507	512	509	31	0	
5	0	0	0	0	0	508	511	508	31	0	
6	0	0	0	0	0	506	510	507	31	0	
7	0	0	0	0	0	504	512	508	32	0	
8	0	0	0	0	1	508	512	510	31	0	
9	0	0	0	0	0	504	514	510	31	0	
10	0	0	0	0	0	503	510	510	31	0	
11	0	0	0	0	0	504	512	514	32	0	
12	0	0	0	0	0	503	513	513	31	0	
13	0	0	0	0	0	503	512	512	32	0	
14	0	0	0	0	0	505	513	508	31	0	
15	0	0	0	0	0	504	515	508	31	0	
0	0	0	0	0	1	505	508	507	31	0	
1	0	0	0	0	0	506	511	507	31	0	
2	0	0	0	0	0	507	511	511	31	0	
3	0	0	0	0	0	506	510	510	31	0	
4	0	0	0	0	0	504	511	510	31	0	
5	0	0	0	0	0	505	511	511	31	0	
6	0	0	0	0	0	503	511	509	31	0	
7	0	0	0	0	0	503	512	510	31	0	
8	0	0	0	0	1	502	515	509	31	0	
9	0	0	0	0	0	503	511	508	31	0	
10	0	0	0	0	0	504	513	510	31	0	
11	0	0	0	0	0	504	512	508	31	0	
12	0	0	0	0	0	505	513	510	31	0	
13	0	0	0	0	0	506	510	508	31	0	
14	0	0	0	0	0	507	510	505	31	0	
15	0	0	0	0	0	507	512	509	31	0	
0	0	0	0	0	1	507	510	509	31	0	
1	0	0	0	0	0	506	509	510	31	0	
2	0	0	0	0	0	505	510	508	31	0	
3	0	0	0	0	0	505	512	510	31	0	
4	0	0	0	0	0	504	513	508	31	0	
5	0	0	0	0	0	504	514	509	31	0	
6	0	0	0	0	0	506	515	510	31	0	
7	0	0	0	0	0	505	511	510	31	0	
8	0	0	0	0	0	505	514	509	31	0	
9	0	0	0	0	0	504	514	508	31	0	
10	0	0	0	0	0	507	513	506	31	0	
11	0	0	0	0	0	505	513	509	31	0	
12	0	0	0	0	0	504	509	510	31	0	
13	0	0	0	0	0	503	508	510	32	0	
14	0	0	0	0	0	505	512	509	32	0	
15	0	0	0	0	0	505	511	510	32	0	
0	0	0	0	0	0	508	511	507	31	0	
1	0	0	0	0	0	508	510	507	31	0	
2	0	0	0	0	0	507	511	507	31	0	
3	0	0	0	0	0	505	511	511	31	0	
4	0	0	0	0	0	504	513	510	31	0	
5	0	0	0	0	0	502	512	512	31	0	
6	0	0	0	0	0	503	512	512	31	0	
7	0	0	0	0	0	504	513	511	31	0	
8	0	0	0	0	0	506	515	509	31	0	
9	0	0	0	0	0	505	515	508	31	0	
10	0	0	0	0	0	507	517	507	31	0	
11	0	0	0	0	0	504	518	508	31	0	
12	0	0	0	0	0	505	514	506	31	0	
13	0	0	0	0	0	505	510	507	31	0	
14	0	0	0	0	0	507	508	508	31	0	
15	0	0	0	0	0	506	507	508	31	0	
0	0	0	0	0	1	503	509	508	32	0	
1	0	0	0	0	0	504	507	511	31	0	
2	0	0	0	0	0	503	511	511	31	0	
3	0	0	0	0	0	505	512	511	31	0	
4	0	0	0	0	0	504	512	510	31	0	
5	0	0	0	0	0	506	512	510	32	0	
6	0	0	0	0	0	505	513	510	31	0	
7	0	0	0	0	0	505	510	509	32	0	
8	0	0	0	0	1	504	513	512	31	0	
9	0	0	0	0	0	503	514	510	31	0	
10	0	0	0	0	0	505	511	510	31	0	
11	0	0	0	0	0	505	512	511	31	0	
12	0	0	0	0	0	507	512	512	31	0	
13	0	0	0	0	0	507	513	511	31	0	
14	0	0	0	0	0	508	513	507	31	0	
15	0	0	0	0	0	505	512	509	31	0	
0	0	0	0	0	1	505	515	509	31	0	
1	0	0	0	0	0	504	513	510	31	0	
2	0	0	0	0	0	505	515	508	31	0	
3	0	0	0	0	0	505	512	505	31	0	
4	0	0	0	0	0	505	512	507	31	0	
5	0	0	0	0	0	507	512	510	31	0	
6	0	0	0	0	0	505	511	508	31	0	
7	0	0	0	0	0	504	511	508	31	0	
8	0	0	0	0	1	504	512	511	31	0	
9	0	0	0	0	0	504	513	509	31	0	
10	0	0	0	0	0	506	513	510	31	0	
11	0	0	0	0	0	504	513	510	31	0	
12	0	0	0	0	0	503	512	509	31	0	
13	0	0	0	0	0	505	511	509	31	0	
14	0	0	0	0	0	504	511	509	31	0	
15	0	0	0	0	0	504	512	508	31	0	
0	0	0	0	0	1	504	513	510	31	0	
1	0	0	0	0	0	506	513	510	31	0	
2	0	0	0	0	0	506	511	509	31	0	
3	0	0	0	0	0	505	509	512	31	0	
4	0	0	0	0	0	505	510	508	31	0	
5	0	0	0	0	0	503	510	509	31	0	
6	0	0	0	0	0	504	509	511	32	0	
7	0	0	0	0	0	505	512	511	31	0	
8	0	0	0	0	1	505	512	510	31	0	
9	0	0	0	0	0	504	512	507	31	0	
10	0	0	0	0	0	507	510	505	31	0	
11	0	0	0	0	0	507	511	507	31	0	
12	0	0	0	0	0	507	511	509	31	0	
13	0	0	0	0	0	506	512	508	31	0	
14	0	0	0	0	0	504	511	509	31	0	
15	0	0	0	0	0	505	515	508	31	0	
0	0	0	0	0	1	508	512	508	31	0	
1	0	0	0	0	0	505	514	507	31	0	
2	0	0	0	0	0	502	515	508	31	0	
3	0	0	0	0	0	507	513	506	31	0	
4	0	0	0	0	0	506	512	505	31	0	
5	0	0	0	0	0	505	514	509	31	0	
6	0	0	0	0	0	503	512	510	31	0	
7	0	0	0	0	0	504	512	511	31	0	
8	0	0	0	0	1	508	512	512	31	0	
9	0	0	0	0	0	505	512	509	31	0	
10	0	0	0	0	0	505	511	507	31	0	
11	0	0	0	0	0	502	512	508	31	0	
12	0	0	0	0	0	503	513	508	31	0	
13	0	0	0	0	0	502	512	512	31	0	
14	0	0	0	0	0	505	510	511	32	0	
15	0	0	0	0	0	505	513	511	31	0	
0	0	0	0	0	1	506	511	512	31	0	
1	0	0	0	0	0	504	511	511	31	0	
2	0	0	0	0	0	505	513	509	31	0	
3	0	0	0	0	0	506	510	510	31	0	
4	0	0	0	0	0	506	512	509	31	0	
5	0	0	0	0	0	505	513	510	31	0	
6	0	0	0	0	0	504	513	508	31	0	
7	0	0	0	0	0	505	511	508	31	0	
8	0	0	0	0	1	506	511	508	31	0	
9	0	0	0	0	0	504	510	509	31	0	
10	0	0	0	0	0	506	510	509	32	0	
11	0	0	0	0	0	504	510	508	31	0	
12	0	0	0	0	0	505	512	510	31	0	
13	0	0	0	0	0	504	512	509	31	0	
14	0	0	0	0	0	506	512	512	31	0	
15	0	0	0	0	0	504	516	510	31	0	
0	0	0	0	0	1	504	515	509	31	0	
1	0	0	0	0	0	505	511	510	31	0	
2	0	0	0	0	0	505	508	505	31	0	
3	0	0	0	0	0	507	511	509	31	0	
4	0	0	0	0	0	504	511	509	31	0	
5	0	0	0	0	0	501	509	510	31	0	
6	0	0	0	0	0	503	509	512	31	0	
7	0	0	0	0	0	504	513	512	31	0	
8	0	0	0	0	1	505	513	511	31	0	
9	0	0	0	0	0	506	514	509	31	0	
10	0	0	0	0	0	504	514	507	31	0	
11	0	0	0	0	0	504	515	509	31	0	
12	0	0	0	0	0	506	514	508	31	0	
13	0	0	0	0	0	506	509	511	32	0	
14	0	0	0	0	0	508	510	509	31	0	
15	0	0	0	0	0	509	512	506	31	0	
0	0	0	0	0	1	507	510	508	31	0	
1	0	0	0	0	0	507	510	508	31	0	
2	0	0	0	0	0	504	512	510	31	0	
3	0	0	0	0	0	502	512	508	31	0	
4	0	0	0	0	0	503	509	512	31	0	
5	0	0	0	0	0	502	511	512	31	0	
6	0	0	0	0	0	502	512	510	31	0	
7	0	0	0	0	0	504	512	508	31	0	
8	0	0	0	0	1	504	511	511	31	0	
9	0	0	0	0	0	504	512	509	31	0	
10	0	0	0	0	0	505	514	508	31	0	
11	0	0	0	0	0	507	512	509	31	0	
12	0	0	0	0	0	506	511	510	31	0	
13	0	0	0	0	0	505	510	510	31	0	
14	0	0	0	0	0	505	511	510	31	0	
15	0	0	0	0	0	504	512	509	31	0	
0	0	0	0	0	1	506	512	509	31	0	
1	0	0	0	0	0	505	513	508	31	0	
2	0	0	0	0	0	505	512	509	31	0	
3	0	0	0	0	0	507	512	510	31	0	
4	0	0	0	0	0	506	516	508	31	0	
5	0	0	0	0	0	507	513	510	31	0	
6	0	0	0	0	0	506	514	509	31	0	
7	0	0	0	0	0	506	511	511	31	0	
8	0	0	0	0	1	506	511	509	32	0	
9	0	0	0	0	0	505	513	509	31	0	
10	0	0	0	0	0	502	513	512	31	0	
11	0	0	0	0	0	505	515	509	31	0	
12	0	0	0	0	0	507	510	506	31	0	
13	0	0	0	0	0	508	508	505	31	0	
14	0	0	0	0	0	507	507	506	31	0	
15	0	0	0	0	0	504	510	505	31	0	
0	0	0	0	0	1	505	514	507	31	0	
1	0	0	0	0	0	504	514	510	31	0	
2	0	0	0	0	0	505	513	508	31	0	
3	0	0	0	0	0	503	513	511	31	0	
4	0	0	0	0	0	504	511	510	31	0	
5	0	0	0	0	0	502	510	510	32	0	
6	0	0	0	0	0	504	514	511	32	0	
7	0	0	0	0	0	505	515	512	32	0	
8	0	0	0	0	1	504	512	510	31	0	
9	0	0	0	0	0	503	514	511	31	0	
10	0	0	0	0	0	508	512	508	31	0	
11	0	0	0	0	0	510	510	507	31	0	
12	0	0	0	0	0	507	506	507	31	0	
13	0	0	0	0	0	509	508	509	31	0	
14	0	0	0	0	0	507	511	508	31	0	
15	0	0	0	0	0	504	511	509	32	0	
0	0	0	0	0	1	504	514	509	31	0	
1	0	0	0	0	0	501	515	512	31	0	
2	0	0	0	0	0	501	516	512	31	0	
3	0	0	0	0	0	502	513	508	31	0	
4	0	0	0	0	0	505	507	507	31	0	
5	0	0	0	0	0	505	508	514	32	0	
6	0	0	0	0	0	505	513	510	31	0	
7	0	0	0	0	0	504	511	508	31	0	
8	0	0	0	0	1	504	511	508	31	0	
9	0	0	0	0	0	506	513	508	31	0	
10	0	0	0	0	0	506	511	509	31	0	
11	0	0	0	0	0	505	510	509	31	0	
12	0	0	0	0	0	508	511	508	31	0	
13	0	0	0	0	0	507	512	509	31	0	
14	0	0	0	0	0	508	509	507	31	0	
15	0	0	0	0	0	504	510	508	31	0	
0	0	0	0	0	1	504	511	506	31	0	
1	0	0	0	0	0	503	513	510	31	0	
2	0	0	0	0	0	504	513	510	31	0	
3	0	0	0	0	0	505	511	509	31	0	
4	0	0	0	0	0	507	513	511	31	0	
5	0	0	0	0	0	504	513	508	31	0	
6	0	0	0	0	0	505	513	511	31	0	
7	0	0	0	0	0	507	512	510	31	0	
8	0	0	0	0	1	505	513	508	31	0	
9	0	0	0	0	0	503	513	508	31	0	
10	0	0	0	0	0	504	512	512	31	0	
11	0	0	0	0	0	504	512	509	31	0	
12	0	0	0	0	0	505	512	511	31	0	
13	0	0	0	0	0	504	514	508	31	0	
14	0	0	0	0	0	509	514	507	31	0	
15	0	0	0	0	0	506	512	507	31	0	
0	0	0	0	0	1	504	511	509	31	0	
1	0	0	0	0	0	501	512	509	32	0	
2	0	0	0	0	0	503	513	510	31	0	
3	0	0	0	0	0	505	513	509	31	0	
4	0	0	0	0	0	508	510	510	31	0	
5	0	0	0	0	0	508	508	508	31	0	
6	0	0	0	0	0	505	512	508	31	0	
7	0	0	0	0	0	505	513	510	31	0	
8	0	0	0	0	1	508	515	511	31	0	
9	0	0	0	0	0	506	514	510	31	0	
10	0	0	0	0	0	507	512	507	31	0	
11	0	0	0	0	0	505	512	508	31	0	
12	0	0	0	0	0	504	511	509	31	0	
13	0	0	0	0	0	502	514	512	31	0	
14	0	0	0	0	0	503	512	510	31	0	
15	0	0	0	0	0	506	513	507	31	0	
0	0	0	0	0	0	507	515	508	31	0	
1	0	0	0	0	0	504	513	510	31	0	
2	0	0	0	0	0	505	513	509	31	0	
3	0	0	0	0	0	503	515	511	31	0	
4	0	0	0	0	0	502	515	513	31	0	
5	0	0	0	0	0	506	511	510	31	0	
6	0	0	0	0	0	505	507	508	31	0	
7	0	0	0	0	0	505	508	508	32	0	
8	0	0	0	0	0	503	512	511	31	0	
9	0	0	0	0	0	503	512	511	32	0	
10	0	0	0	0	0	507	511	510	31	0	
11	0	0	0	0	0	508	511	508	31	0	
12	0	0	0	0	0	507	511	508	31	0	
13	0	0	0	0	0	509	507	505	31	0	
14	0	0	0	0	0	505	506	509	31	0	
15	0	0	0	0	0	502	505	510	31	0	
0	0	0	0	0	0	501	507	510	31	0	
1	0	0	0	0	0	504	512	511	31	0	
2	0	0	0	0	0	504	515	511	31	0	
3	0	0	0	0	0	503	514	511	31	0	
4	0	0	0	0	0	503	515	512	31	0	
5	0	0	0	0	0	503	515	511	32	0	
6	0	0	0	0	0	507	514	507	32	0	
7	0	0	0	0	0	508	512	505	31	0	
8	0	0	0	0	1	507	519	508	31	0	
9	0	0	0	0	0	506	520	509	31	0	
10	0	0	0	0	0	506	515	509	31	0	
11	0	0	0	0	0	509	507	507	32	0	
12	0	0	0	0	0	512	509	505	32	0	
13	0	0	0	0	0	512	509	504	31	0	
14	0	0	0	0	0	507	510	505	31	0	
15	0	0	0	0	0	501	511	509	31	0	
0	0	0	0	0	1	499	515	511	31	0	
1	0	0	0	0	0	503	513	510	31	0	
2	0	0	0	0	0	503	508	512	31	0	
3	0	0	0	0	0	500	505	516	32	0	
4	0	0	0	0	0	504	509	512	32	0	
5	0	0	0	0	0	506	512	515	32	0	
6	0	0	0	0	0	505	515	510	32	0	
7	0	0	0	0	0	508	518	510	31	0	
8	0	0	0	0	1	508	515	508	31	0	
9	0	0	0	0	0	505	515	504	31	0	
10	0	0	0	0	0	504	511	507	31	0	
11	0	0	0	0	0	503	509	507	32	0	
12	0	0	0	0	0	502	515	509	31	0	
13	0	0	0	0	0	502	518	516	31	0	
14	0	0	0	0	0	502	522	513	31	0	
15	0	0	0	0	0	508	516	503	31	0	
0	0	0	0	0	1	512	502	500	31	0	
1	0	0	0	0	0	507	499	504	32	0	
2	0	0	0	0	0	502	507	510	32	0	
3	0	0	0	0	0	501	505	511	32	0	
4	0	0	0	0	0	501	508	514	32	0	
5	0	0	0	0	0	502	510	513	31	0	
6	0	0	0	0	0	506	512	508	32	0	
7	0	0	0	0	0	510	509	505	32	0	
8	0	0	0	0	1	508	513	508	31	0	
9	0	0	0	0	0	506	515	508	31	0	
10	0	0	0	0	0	504	515	511	31	0	
11	0	0	0	0	0	500	512	513	31	0	
12	0	0	0	0	0	503	512	511	31	0	
13	0	0	0	0	0	508	514	509	31	0	
14	0	0	0	0	0	508	513	511	31	0	
15	0	0	0	0	0	508	513	508	31	0	
0	0	0	0	0	1	504	518	508	31	0	
1	0	0	0	0	0	507	515	508	31	0	
2	0	0	0	0	0	504	504	510	32	0	
3	0	0	0	0	0	502	505	509	32	0	
4	0	0	0	0	0	503	511	513	31	0	
5	0	0	0	0	0	502	513	511	31	0	
6	0	0	0	0	0	506	511	507	31	0	
7	0	0	0	0	0	504	513	508	32	0	
8	0	0	0	0	1	504	518	511	31	0	
9	0	0	0	0	0	504	519	508	31	0	
10	0	0	0	0	0	505	517	510	31	0	
11	0	0	0	0	0	504	511	510	31	0	
12	0	0	0	0	0	504	509	510	31	0	
13	0	0	0	0	0	504	507	510	31	0	
14	0	0	0	0	0	507	500	509	32	0	
15	0	0	0	0	0	508	504	509	32	0	
0	0	0	0	0	1	508	511	505	32	0	
1	0	0	0	0	0	508	512	504	31	0	
2	0	0	0	0	0	504	513	508	31	0	
3	0	0	0	0	0	503	513	512	31	0	
4	0	0	0	0	0	503	514	513	32	0	
5	0	0	0	0	0	504	515	510	31	0	
6	0	0	0	0	0	504	515	511	31	0	
7	0	0	0	0	0	501	512	512	31	0	
8	0	0	0	0	1	502	512	509	31	0	
9	0	0	0	0	0	504	508	509	31	0	
10	0	0	0	0	0	508	510	509	31	0	
11	0	0	0	0	0	506	513	508	31	0	
12	0	0	0	0	0	505	518	510	31	0	
13	0	0	0	0	0	510	519	505	31	0	
14	0	0	0	0	0	511	513	506	31	0	
15	0	0	0	0	0	509	515	503	31	0	
0	0	0	0	0	1	507	511	510	31	0	
1	0	0	0	0	0	505	509	510	32	0	
2	0	0	0	0	0	507	508	508	32	0	
3	0	0	0	0	0	506	515	509	31	0	
4	0	0	0	0	0	507	517	508	31	0	
5	0	0	0	0	0	502	512	510	31	0	
6	0	0	0	0	0	500	508	513	31	0	
7	0	0	0	0	0	504	508	509	31	0	
8	0	0	0	0	1	504	508	509	31	0	
9	0	0	0	0	0	503	508	514	32	0	
10	0	0	0	0	0	503	508	511	32	0	
11	0	0	0	0	0	504	514	509	31	0	
12	0	0	0	0	0	498	515	511	31	0	
13	0	0	0	0	0	500	513	512	31	0	
14	0	0	0	0	0	505	516	509	31	0	
15	0	0	0	0	0	507	515	505	31	0	
0	0	0	0	0	1	509	512	506	31	0	
1	0	0	0	0	0	508	511	511	31	0	
2	0	0	0	0	0	506	515	512	31	0	
3	0	0	0	0	0	510	516	503	31	0	
4	0	0	0	0	0	511	510	503	31	0	
5	0	0	0	0	0	510	505	504	31	0	
6	0	0	0	0	0	506	510	507	31	0	
7	0	0	0	0	0	505	511	508	31	0	
8	0	0	0	0	1	502	518	513	31	0	
9	0	0	0	0	0	500	515	518	31	0	
10	0	0	0	0	0	499	512	515	31	0	
11	0	0	0	0	0	499	512	513	31	0	
12	0	0	0	0	0	505	509	511	32	0	
13	0	0	0	0	0	505	508	509	31	0	
14	0	0	0	0	0	511	510	508	31	0	
15	0	0	0	0	0	509	509	507	32	0	
0	0	0	0	0	1	507	511	506	31	0	
1	0	0	0	0	0	504	516	508	31	0	
2	0	0	0	0	0	502	516	509	31	0	
3	0	0	0	0	0	502	512	508	31	0	
4	0	0	0	0	0	504	509	505	31	0	
5	0	0	0	0	0	502	509	509	32	0	
6	0	0	0	0	0	503	506	510	32	0	
7	0	0	0	0	0	504	510	511	32	0	
8	0	0	0	0	1	504	510	509	31	0	
9	0	0	0	0	0	507	512	510	32	0	
10	0	0	0	0	0	505	514	508	31	0	
11	0	0	0	0	0	506	517	509	31	0	
12	0	0	0	0	0	507	513	511	31	0	
13	0	0	0	0	0	506	512	511	31	0	
14	0	0	0	0	0	503	514	512	31	0	
15	0	0	0	0	0	505	509	510	31	0	
0	0	0	0	0	1	508	511	507	31	0	
1	0	0	0	0	0	508	513	505	31	0	
2	0	0	0	0	0	506	512	508	31	0	
3	0	0	0	0	0	505	511	510	31	0	
4	0	0	0	0	0	506	511	508	31	0	
5	0	0	0	0	0	507	508	508	31	0	
6	0	0	0	0	0	503	511	509	32	0	
7	0	0	0	0	0	506	512	511	31	0	
8	0	0	0	0	1	506	514	511	31	0	
9	0	0	0	0	0	506	513	509	31	0	
10	0	0	0	0	0	507	512	510	31	0	
11	0	0	0	0	0	503	513	509	31	0	
12	0	0	0	0	0	504	514	508	32	0	
13	0	0	0	0	0	503	518	511	31	0	
14	0	0	0	0	0	502	514	512	31	0	
15	0	0	0	0	0	504	510	507	31	0	
0	0	0	0	0	1	503	511	506	31	0	
1	0	0	0	0	0	505	510	506	31	0	
2	0	0	0	0	0	505	510	506	31	0	
3	0	0	0	0	0	510	507	508	32	0	
4	0	0	0	0	0	509	508	508	31	0	
5	0	0	0	0	0	507	513	510	31	0	
6	0	0	0	0	0	507	517	508	31	0	
7	0	0	0	0	0	505	516	509	31	0	
8	0	0	0	0	1	504	515	509	31	0	
9	0	0	0	0	0	502	512	509	31	0	
10	0	0	0	0	0	502	509	510	31	0	
11	0	0	0	0	0	503	507	510	31	0	
12	0	0	0	0	0	503	511	512	31	0	
13	0	0	0	0	0	502	511	510	32	0	
14	0	0	0	0	0	505	511	512	31	0	
15	0	0	0	0	0	507	508	508	31	0	
0	0	0	0	0	1	508	511	509	31	0	
1	0	0	0	0	0	506	513	509	31	0	
2	0	0	0	0	0	507	512	508	31	0	
3	0	0	0	0	0	506	513	509	31	0	
4	0	0	0	0	0	505	512	509	31	0	
5	0	0	0	0	0	504	511	510	31	0	
6	0	0	0	0	0	504	508	511	31	0	
7	0	0	0	0	0	506	511	511	32	0	
8	0	0	0	0	1	506	513	509	31	0	
9	0	0	0	0	0	504	514	507	31	0	
10	0	0	0	0	0	507	515	506	31	0	
11	0	0	0	0	0	505	513	506	31	0	
12	0	0	0	0	0	506	513	508	31	0	
13	0	0	0	0	0	504	509	510	31	0	
14	0	0	0	0	0	502	510	509	31	0	
15	0	0	0	0	0	505	510	510	32	0	
0	0	0	0	0	1	502	510	513	32	0	
1	0	0	0	0	0	504	511	513	32	0	
2	0	0	0	0	0	504	512	510	31	0	
3	0	0	0	0	0	507	513	508	31	0	
4	0	0	0	0	0	507	513	507	31	0	
5	0	0	0	0	0	507	513	508	31	0	
6	0	0	0	0	0	503	515	508	31	0	
7	0	0	0	0	0	505	513	508	31	0	
8	0	0	0	0	1	507	511	506	31	0	
9	0	0	0	0	0	509	515	507	31	0	
10	0	0	0	0	0	508	516	511	31	0	
11	0	0	0	0	0	506	511	507	31	0	
12	0	0	0	0	0	505	511	507	31	0	
13	0	0	0	0	0	504	512	509	31	0	
14	0	0	0	0	0	503	512	508	31	0	
15	0	0	0	0	0	504	513	512	31	0	
0	0	0	0	0	1	502	513	509	31	0	
1	0	0	0	0	0	501	512	511	31	0	
2	0	0	0	0	0	503	512	511	31	0	
3	0	0	0	0	0	504	512	510	31	0	
4	0	0	0	0	0	505	512	512	31	0	
5	0	0	0	0	0	505	510	510	31	0	
6	0	0	0	0	0	506	510	512	31	0	
7	0	0	0	0	0	505	512	510	32	0	
8	0	0	0	0	1	505	512	510	32	0	
9	0	0	0	0	0	504	512	509	32	0	
10	0	0	0	0	0	503	513	511	31	0	
11	0	0	0	0	0	504	511	508	32	0	
12	0	0	0	0	0	503	508	511	32	0	
13	0	0	0	0	0	506	510	509	32	0	
14	0	0	0	0	0	508	512	506	32	0	
15	0	0	0	0	0	511	510	508	31	0	
0	0	0	0	0	0	508	512	507	31	0	
1	0	0	0	0	0	507	513	505	31	0	
2	0	0	0	0	0	504	511	508	31	0	
3	0	0	0	0	0	505	513	505	31	0	
4	0	0	0	0	0	507	511	505	31	0	
5	0	0	0	0	0	505	511	505	31	0	
6	0	0	0	0	0	505	514	504	31	0	
7	0	0	0	0	0	507	514	510	31	0	
8	0	0	0	0	0	505	510	513	31	0	
9	0	0	0	0	0	504	508	510	32	0	
10	0	0	0	0	0	502	507	508	31	0	
11	0	0	0	0	0	504	508	505	31	0	
12	0	0	0	0	0	504	507	507	31	0	
13	0	0	0	0	0	517	510	500	31	0	
14	0	0	0	0	0	522	519	495	31	0	
15	0	0	0	0	0	515	526	494	31	0	
0	0	0	0	0	1	496	522	512	31	0	
1	0	0	0	0	0	479	515	543	32	0	
2	0	0	0	0	0	490	510	529	32	0	
3	0	0	0	0	0	505	506	513	32	0	
4	0	0	0	0	0	506	509	510	32	0	
5	0	0	0	0	0	503	513	508	31	0	
6	0	0	0	0	0	500	519	509	31	0	
7	0	0	0	0	0	494	515	510	31	0	
8	0	0	0	0	1	495	507	510	31	0	
9	0	0	0	0	0	509	499	506	32	0	
10	0	0	0	0	0	519	503	507	32	0	
11	0	0	0	0	0	516	516	512	32	0	
12	0	0	0	0	0	505	521	519	32	0	
13	0	0	0	0	0	508	524	511	31	0	
14	0	0	0	0	0	504	520	504	31	0	
15	0	0	0	0	0	502	516	510	31	0	
0	0	0	0	0	1	498	509	511	31	0	
1	0	0	0	0	0	506	508	505	31	0	
2	0	0	0	0	0	513	505	504	31	0	
3	0	0	0	0	0	515	510	501	31	0	
4	0	0	0	0	0	510	510	504	31	0	
5	0	0	0	0	0	507	512	508	31	0	
6	0	0	0	0	0	496	513	519	32	0	
7	0	0	0	0	0	494	511	519	32	0	
8	0	0	0	0	1	504	509	515	32	0	
9	0	0	0	0	0	507	502	508	32	0	
10	0	0	0	0	0	508	510	506	31	0	
11	0	0	0	0	0	508	514	506	31	0	
12	0	0	0	0	0	507	513	507	31	0	
13	0	0	0	0	0	504	518	507	31	0	
14	0	0	0	0	0	510	517	506	31	0	
15	0	0	0	0	0	508	513	507	31	0	
0	0	0	0	0	1	507	512	509	31	0	
1	0	0	0	0	0	499	510	516	32	0	
2	0	0	0	0	0	500	505	515	32	0	
3	0	0	0	0	0	503	510	509	31	0	
4	0	0	0	0	0	504	512	504	31	0	
5	0	0	0	0	0	505	515	507	31	0	
6	0	0	0	0	0	510	518	504	31	0	
7	0	0	0	0	0	512	523	503	31	0	
8	0	0	0	0	1	511	516	502	31	0	
9	0	0	0	0	0	507	511	508	31	0	
10	0	0	0	0	0	507	507	507	32	0	
11	0	0	0	0	0	507	505	515	32	0	
12	0	0	0	0	0	499	507	515	32	0	
13	0	0	0	0	0	501	505	516	32	0	
14	0	0	0	0	0	504	514	512	31	0	
15	0	0	0	0	0	504	516	511	31	0	
0	0	0	0	0	1	503	515	509	31	0	
1	0	0	0	0	0	501	515	511	31	0	
2	0	0	0	0	0	504	511	508	32	0	
3	0	0	0	0	0	503	511	508	31	0	
4	0	0	0	0	0	504	511	507	31	0	
5	0	0	0	0	0	506	505	508	31	0	
6	0	0	0	0	0	505	509	511	31	0	
7	0	0	0	0	0	502	509	511	31	0	
8	0	0	0	0	1	502	513	510	31	0	
9	0	0	0	0	0	501	513	510	31	0	
10	0	0	0	0	0	504	512	508	31	0	
11	0	0	0	0	0	508	512	510	32	0	
12	0	0	0	0	0	508	511	507	31	0	
13	0	0	0	0	0	507	512	506	31	0	
14	0	0	0	0	0	508	511	508	31	0	
15	0	0	0	0	0	508	513	508	31	0	
0	0	0	0	0	1	508	513	507	31	0	
1	0	0	0	0	0	512	515	507	31	0	
2	0	0	0	0	0	509	516	506	31	0	
3	0	0	0	0	0	506	515	511	31	0	
4	0	0	0	0	0	499	515	512	31	0	
5	0	0	0	0	0	501	514	509	31	0	
6	0	0	0	0	0	504	509	508	31	0	
7	0	0	0	0	0	507	510	507	31	0	
8	0	0	0	0	1	503	504	513	31	0	
9	0	0	0	0	0	502	503	518	31	0	
10	0	0	0	0	0	503	508	511	31	0	
11	0	0	0	0	0	510	514	504	31	0	
12	0	0	0	0	0	505	515	506	32	0	
13	0	0	0	0	0	499	517	513	32	0	
14	0	0	0	0	0	505	517	509	32	0	
15	0	0	0	0	0	511	517	507	31	0	
0	0	0	0	0	1	508	515	512	31	0	
1	0	0	0	0	0	507	512	511	31	0	
2	0	0	0	0	0	505	512	511	31	0	
3	0	0	0	0	0	502	512	512	31	0	
4	0	0	0	0	0	504	508	512	32	0	
5	0	0	0	0	0	499	511	512	32	0	
6	0	0	0	0	0	499	512	511	31	0	
7	0	0	0	0	0	504	513	512	31	0	
8	0	0	0	0	1	506	510	509	31	0	
9	0	0	0	0	0	511	510	507	31	0	
10	0	0	0	0	0	510	509	508	31	0	
11	0	0	0	0	0	510	509	508	31	0	
12	0	0	0	0	0	512	514	506	31	0	
13	0	0	0	0	0	510	516	503	31	0	
14	0	0	0	0	0	507	521	504	31	0	
15	0	0	0	0	0	500	514	510	31	0	
0	0	0	0	0	1	499	511	511	32	0	
1	0	0	0	0	0	491	510	515	32	0	
2	0	0	0	0	0	491	511	513	32	0	
3	0	0	0	0	0	504	514	510	31	0	
4	0	0	0	0	0	512	514	509	31	0	
5	0	0	0	0	0	515	511	506	31	0	
6	0	0	0	0	0	512	512	508	31	0	
7	0	0	0	0	0	508	513	507	31	0	
8	0	0	0	0	1	512	512	506	31	0	
9	0	0	0	0	0	508	511	507	31	0	
10	0	0	0	0	0	508	511	508	31	0	
11	0	0	0	0	0	507	513	508	31	0	
12	0	0	0	0	0	504	511	512	31	0	
13	0	0	0	0	0	503	510	509	32	0	
14	0	0	0	0	0	502	510	509	32	0	
15	0	0	0	0	0	503	514	509	32	0	
0	0	0	0	0	1	504	513	508	32	0	
1	0	0	0	0	0	506	516	506	31	0	
2	0	0	0	0	0	505	515	507	31	0	
3	0	0	0	0	0	504	515	510	31	0	
4	0	0	0	0	0	505	515	507	31	0	
5	0	0	0	0	0	507	512	506	31	0	
6	0	0	0	0	0	504	511	506	31	0	
7	0	0	0	0	0	501	507	509	32	0	
8	0	0	0	0	1	499	508	515	32	0	
9	0	0	0	0	0	504	512	511	32	0	
10	0	0	0	0	0	509	515	508	32	0	
11	0	0	0	0	0	515	520	505	31	0	
12	0	0	0	0	0	515	516	501	31	0	
13	0	0	0	0	0	513	515	504	31	0	
14	0	0	0	0	0	509	515	508	31	0	
15	0	0	0	0	0	504	517	513	31	0	
0	0	0	0	0	1	501	513	511	31	0	
1	0	0	0	0	0	501	514	511	31	0	
2	0	0	0	0	0	502	513	512	31	0	
3	0	0	0	0	0	504	511	515	31	0	
4	0	0	0	0	0	506	507	511	31	0	
5	0	0	0	0	0	510	505	511	31	0	
6	0	0	0	0	0	510	504	509	31	0	
7	0	0	0	0	0	506	506	511	31	0	
8	0	0	0	0	1	500	505	510	32	0	
9	0	0	0	0	0	499	511	511	32	0	
10	0	0	0	0	0	499	517	511	32	0	
11	0	0	0	0	0	502	516	510	32	0	
12	0	0	0	0	0	504	517	510	32	0	
13	0	0	0	0	0	506	510	511	31	0	
14	0	0	0	0	0	506	508	512	31	0	
15	0	0	0	0	0	509	509	509	31	0	
0	0	0	0	0	1	510	508	507	31	0	
1	0	0	0	0	0	508	507	508	31	0	
2	0	0	0	0	0	504	508	510	31	0	
3	0	0	0	0	0	502	517	510	31	0	
4	0	0	0	0	0	501	517	512	31	0	
5	0	0	0	0	0	502	518	511	31	0	
6	0	0	0	0	0	502	514	509	31	0	
7	0	0	0	0	0	503	512	509	32	0	
8	0	0	0	0	1	504	508	512	32	0	
9	0	0	0	0	0	501	505	510	31	0	
10	0	0	0	0	0	502	504	510	31	0	
11	0	0	0	0	0	504	505	508	32	0	
12	0	0	0	0	0	504	507	505	31	0	
13	0	0	0	0	0	505	511	510	31	0	
14	0	0	0	0	0	504	513	508	31	0	
15	0	0	0	0	0	505	517	513	31	0	
0	0	0	0	0	1	506	518	508	31	0	
1	0	0	0	0	0	507	519	509	31	0	
2	0	0	0	0	0	505	515	509	31	0	
3	0	0	0	0	0	501	512	510	31	0	
4	0	0	0	0	0	500	509	510	31	0	
5	0	0	0	0	0	503	505	513	31	0	
6	0	0	0	0	0	504	505	510	32	0	
7	0	0	0	0	0	504	510	510	31	0	
8	0	0	0	0	1	508	512	508	31	0	
9	0	0	0	0	0	504	513	508	31	0	
10	0	0	0	0	0	508	514	510	31	0	
11	0	0	0	0	0	508	519	508	31	0	
12	0	0	0	0	0	506	519	506	31	0	
13	0	0	0	0	0	506	513	505	31	0	
14	0	0	0	0	0	508	510	508	31	0	
15	0	0	0	0	0	507	511	510	31	0	
0	0	0	0	0	1	511	513	509	31	0	
1	0	0	0	0	0	511	515	507	31	0	
2	0	0	0	0	0	511	512	508	31	0	
3	0	0	0	0	0	499	513	511	31	0	
4	0	0	0	0	0	497	513	511	32	0	
5	0	0	0	0	0	502	511	510	31	0	
6	0	0	0	0	0	508	508	508	31	0	
7	0	0	0	0	0	511	503	508	31	0	
8	0	0	0	0	1	506	502	510	32	0	
9	0	0	0	0	0	503	506	512	31	0	
10	0	0	0	0	0	503	515	509	31	0	
11	0	0	0	0	0	504	520	511	31	0	
12	0	0	0	0	0	505	520	510	31	0	
13	0	0	0	0	0	509	519	507	31	0	
14	0	0	0	0	0	506	515	510	31	0	
15	0	0	0	0	0	504	515	508	31	0	
0	0	0	0	0	1	504	513	509	31	0	
1	0	0	0	0	0	503	512	508	31	0	
2	0	0	0	0	0	504	513	508	31	0	
3	0	0	0	0	0	502	511	507	31	0	
4	0	0	0	0	0	508	509	509	31	0	
5	0	0	0	0	0	505	505	510	32	0	
6	0	0	0	0	0	508	504	512	32	0	
7	0	0	0	0	0	505	513	511	32	0	
8	0	0	0	0	0	502	515	512	31	0	
9	0	0	0	0	0	501	513	508	31	0	
10	0	0	0	0	0	504	512	508	31	0	
11	0	0	0	0	0	509	512	507	31	0	
12	0	0	0	0	0	506	516	507	31	0	
13	0	0	0	0	0	504	517	510	31	0	
14	0	0	0	0	0	500	515	510	31	0	
15	0	0	0	0	0	499	514	509	31	0	
0	0	0	0	0	0	498	513	510	31	0	
1	0	0	0	0	0	498	510	514	31	0	
2	0	0	0	0	0	504	508	511	31	0	
3	0	0	0	0	0	510	510	510	31	0	
4	0	0	0	0	0	512	508	508	32	0	
5	0	0	0	0	0	516	507	505	32	0	
6	0	0	0	0	0	508	508	509	32	0	
7	0	0	0	0	0	508	505	510	32	0	
8	0	0	0	0	0	506	507	508	31	0	
9	0	0	0	0	0	505	520	509	31	0	
10	0	0	0	0	0	501	524	509	31	0	
11	0	0	0	0	0	502	524	508	31	0	
12	0	0	0	0	0	498	519	511	31	0	
13	0	0	0	0	0	499	512	512	31	0	
14	0	0	0	0	0	500	510	509	31	0	
15	0	0	0	0	0	507	508	510	31	0	
0	0	0	0	0	1	505	508	510	31	0	
1	0	0	0	0	0	505	508	511	31	0	
2	0	0	0	0	0	508	506	512	31	0	
3	0	0	0	0	0	509	505	512	32	0	
4	0	0	0	0	0	513	511	508	31	0	
5	0	0	0	0	0	512	518	509	31	0	
6	0	0	0	0	0	507	520	508	31	0	
7	0	0	0	0	0	506	523	507	31	0	
8	0	0	0	0	1	507	515	506	31	0	
9	0	0	0	0	0	509	507	507	31	0	
10	0	0	0	0	0	504	510	509	31	0	
11	0	0	0	0	0	499	501	510	31	0	
12	0	0	0	0	0	503	507	510	31	0	
13	0	0	0	0	0	501	520	508	31	0	
14	0	0	0	0	0	504	524	508	31	0	
15	0	0	0	0	0	506	523	510	31	0	
0	0	0	0	0	1	504	519	508	31	0	
1	0	0	0	0	0	499	516	511	31	0	
2	0	0	0	0	0	500	509	511	31	0	
3	0	0	0	0	0	500	506	512	31	0	
4	0	0	0	0	0	503	507	510	31	0	
5	0	0	0	0	0	503	508	509	32	0	
6	0	0	0	0	0	507	506	509	31	0	
7	0	0	0	0	0	508	508	508	31	0	
8	0	0	0	0	1	507	508	510	31	0	
9	0	0	0	0	0	507	511	508	31	0	
10	0	0	0	0	0	510	513	507	31	0	
11	0	0	0	0	0	508	512	508	31	0	
12	0	0	0	0	0	508	511	511	31	0	
13	0	0	0	0	0	508	512	511	31	0	
14	0	0	0	0	0	504	511	511	31	0	
15	0	0	0	0	0	505	511	510	31	0	
0	0	0	0	0	1	501	511	508	31	0	
1	0	0	0	0	0	498	505	511	32	0	
2	0	0	0	0	0	502	500	511	32	0	
3	0	0	0	0	0	506	502	508	31	0	
4	0	0	0	0	0	506	508	509	31	0	
5	0	0	0	0	0	505	511	510	31	0	
6	0	0	0	0	0	504	516	512	31	0	
7	0	0	0	0	0	502	525	511	31	0	
8	0	0	0	0	1	504	529	511	31	0	
9	0	0	0	0	0	506	522	508	31	0	
10	0	0	0	0	0	505	518	507	31	0	
11	0	0	0	0	0	506	516	504	31	0	
12	0	0	0	0	0	508	512	507	31	0	
13	0	0	0	0	0	503	510	511	31	0	
14	0	0	0	0	0	504	505	508	31	0	
15	0	0	0	0	0	503	507	508	31	0	
0	0	0	0	0	1	504	507	507	31	0	
1	0	0	0	0	0	505	510	508	31	0	
2	0	0	0	0	0	508	513	509	32	0	
3	0	0	0	0	0	509	512	506	31	0	
4	0	0	0	0	0	509	515	507	31	0	
5	0	0	0	0	0	508	512	509	31	0	
6	0	0	0	0	0	505	510	508	31	0	
7	0	0	0	0	0	506	507	510	31	0	
8	0	0	0	0	1	507	504	510	32	0	
9	0	0	0	0	0	507	506	512	32	0	
10	0	0	0	0	0	507	513	512	31	0	
11	0	0	0	0	0	503	519	511	31	0	
12	0	0	0	0	0	500	522	509	31	0	
13	0	0	0	0	0	504	520	508	31	0	
14	0	0	0	0	0	505	513	507	31	0	
15	0	0	0	0	0	505	509	511	31	0	
0	0	0	0	0	1	510	510	510	31	0	
1	0	0	0	0	0	512	507	508	31	0	
2	0	0	0	0	0	510	512	509	31	0	
3	0	0	0	0	0	507	508	509	31	0	
4	0	0	0	0	0	502	511	511	31	0	
5	0	0	0	0	0	500	515	511	31	0	
6	0	0	0	0	0	500	510	512	31	0	
7	0	0	0	0	0	497	512	512	31	0	
8	0	0	0	0	1	497	509	511	31	0	
9	0	0	0	0	0	501	511	509	31	0	
10	0	0	0	0	0	499	515	510	31	0	
11	0	0	0	0	0	500	519	511	31	0	
12	0	0	0	0	0	500	519	511	31	0	
13	0	0	0	0	0	508	514	507	31	0	
14	0	0	0	0	0	517	511	507	31	0	
15	0	0	0	0	0	513	507	509	32	0	
0	0	0	0	0	1	508	512	511	32	0	
1	0	0	0	0	0	503	513	510	31	0	
2	0	0	0	0	0	505	513	510	31	0	
3	0	0	0	0	0	508	515	511	31	0	
4	0	0	0	0	0	507	509	508	31	0	
5	0	0	0	0	0	506	506	509	31	0	
6	0	0	0	0	0	508	500	506	31	0	
7	0	0	0	0	0	508	503	508	32	0	
8	0	0	0	0	1	511	509	508	32	0	
9	0	0	0	0	0	510	515	507	31	0	
10	0	0	0	0	0	505	517	507	31	0	
11	0	0	0	0	0	502	523	508	31	0	
12	0	0	0	0	0	502	521	510	31	0	
13	0	0	0	0	0	502	516	511	31	0	
14	0	0	0	0	0	501	512	511	31	0	
15	0	0	0	0	0	501	510	511	31	0	
0	0	0	0	0	1	501	513	511	31	0	
1	0	0	0	0	0	503	512	508	31	0	
2	0	0	0	0	0	505	511	509	31	0	
3	0	0	0	0	0	504	513	510	31	0	
4	0	0	0	0	0	500	514	511	31	0	
5	0	0	0	0	0	497	513	512	31	0	
6	0	0	0	0	0	498	513	511	31	0	
7	0	0	0	0	0	508	513	508	32	0	
8	0	0	0	0	1	513	508	508	32	0	
9	0	0	0	0	0	510	508	510	32	0	
10	0	0	0	0	0	504	508	508	32	0	
11	0	0	0	0	0	504	514	511	31	0	
12	0	0	0	0	0	509	513	510	31	0	
13	0	0	0	0	0	504	508	509	31	0	
14	0	0	0	0	0	505	508	509	31	0	
15	0	0	0	0	0	502	506	507	31	0	
0	0	0	0	0	1	502	505	509	31	0	
1	0	0	0	0	0	500	509	510	31	0	
2	0	0	0	0	0	512	515	507	31	0	
3	0	0	0	0	0	519	516	506	31	0	
4	0	0	0	0	0	514	514	508	31	0	
5	0	0	0	0	0	506	512	510	31	0	
6	0	0	0	0	0	506	517	511	31	0	
7	0	0	0	0	0	504	521	508	31	0	
8	0	0	0	0	1	502	525	509	31	0	
9	0	0	0	0	0	504	519	510	31	0	
10	0	0	0	0	0	505	511	508	31	0	
11	0	0	0	0	0	505	507	507	31	0	
12	0	0	0	0	0	503	506	505	31	0	
13	0	0	0	0	0	500	504	508	31	0	
14	0	0	0	0	0	502	504	511	32	0	
15	0	0	0	0	0	502	505	506	31	0	
0	0	0	0	0	1	502	508	509	31	0	
1	0	0	0	0	0	507	508	510	31	0	
2	0	0	0	0	0	509	500	506	31	0	
3	0	0	0	0	0	507	497	507	32	0	
4	0	0	0	0	0	507	502	508	31	0	
5	0	0	0	0	0	508	519	512	32	0	
6	0	0	0	0	0	504	538	512	31	0	
7	0	0	0	0	0	499	539	515	31	0	
8	0	0	0	0	1	498	534	512	31	0	
9	0	0	0	0	0	503	521	510	32	0	
10	0	0	0	0	0	510	512	508	31	0	
11	0	0	0	0	0	510	511	505	31	0	
12	0	0	0	0	0	509	509	508	31	0	
13	0	0	0	0	0	508	507	510	31	0	
14	0	0	0	0	0	505	507	513	31	0	
15	0	0	0	0	0	504	508	509	31	0	
0	0	0	0	0	1	512	507	509	31	0	
1	0	0	0	0	0	512	504	508	31	0	
2	0	0	0	0	0	505	504	509	31	0	
3	0	0	0	0	0	499	505	509	31	0	
4	0	0	0	0	0	498	511	509	31	0	
5	0	0	0	0	0	499	511	508	31	0	
6	0	0	0	0	0	503	515	506	31	0	
7	0	0	0	0	0	501	517	505	31	0	
8	0	0	0	0	1	500	519	508	31	0	
9	0	0	0	0	0	502	525	507	31	0	
10	0	0	0	0	0	499	526	508	31	0	
11	0	0	0	0	0	500	520	509	31	0	
12	0	0	0	0	0	508	513	511	31	0	
13	0	0	0	0	0	511	504	510	32	0	
14	0	0	0	0	0	514	500	510	32	0	
15	0	0	0	0	0	513	503	509	31	0	
0	0	0	0	0	1	512	508	512	31	0	
1	0	0	0	0	0	511	511	509	31	0	
2	0	0	0	0	0	508	510	510	31	0	
3	0	0	0	0	0	508	513	505	31	0	
4	0	0	0	0	0	504	512	508	31	0	
5	0	0	0	0	0	497	512	508	31	0	
6	0	0	0	0	0	495	518	508	31	0	
7	0	0	0	0	0	495	514	507	31	0	
8	0	0	0	0	1	496	511	510	31	0	
9	0	0	0	0	0	505	511	509	31	0	
10	0	0	0	0	0	508	508	507	31	0	
11	0	0	0	0	0	508	509	507	31	0	
12	0	0	0	0	0	512	509	508	31	0	
13	0	0	0	0	0	515	513	511	32	0	
14	0	0	0	0	0	515	512	510	31	0	
15	0	0	0	0	0	507	512	509	31	0	
0	0	0	0	0	1	501	508	513	32	0	
1	0	0	0	0	0	497	504	515	31	0	
2	0	0	0	0	0	502	507	514	32	0	
3	0	0	0	0	0	503	510	512	31	0	
4	0	0	0	0	0	503	512	509	31	0	
5	0	0	0	0	0	507	512	508	31	0	
6	0	0	0	0	0	510	515	505	31	0	
7	0	0	0	0	0	511	506	507	31	0	
8	0	0	0	0	1	509	511	508	31	0	
9	0	0	0	0	0	505	524	510	31	0	
10	0	0	0	0	0	503	529	511	32	0	
11	0	0	0	0	0	502	527	514	31	0	
12	0	0	0	0	0	501	527	512	31	0	
13	0	0	0	0	0	503	523	507	31	0	
14	0	0	0	0	0	504	513	508	31	0	
15	0	0	0	0	0	507	499	509	31	0	
0	0	0	0	0	0	510	494	507	31	0	
1	0	0	0	0	0	510	505	507	31	0	
2	0	0	0	0	0	505	516	507	31	0	
3	0	0	0	0	0	504	521	510	31	0	
4	0	0	0	0	0	500	514	511	31	0	
5	0	0	0	0	0	504	509	507	31	0	
6	0	0	0	0	0	508	504	506	32	0	
7	0	0	0	0	0	505	506	508	32	0	
8	0	0	0	0	0	499	505	510	32	0	
9	0	0	0	0	0	496	506	512	31	0	
10	0	0	0	0	0	498	507	512	32	0	
11	0	0	0	0	0	500	508	512	32	0	
12	0	0	0	0	0	504	509	512	32	0	
13	0	0	0	0	0	504	511	512	31	0	
14	0	0	0	0	0	510	510	511	31	0	
15	0	0	0	0	0	511	514	508	31	0	
0	0	0	0	0	0	512	515	506	31	0	
1	0	0	0	0	0	513	510	504	31	0	
2	0	0	0	0	0	510	513	504	31	0	
3	0	0	0	0	0	505	512	511	31	0	
4	0	0	0	0	0	505	509	508	31	0	
5	0	0	0	0	0	505	506	508	31	0	
6	0	0	0	0	0	500	508	508	31	0	
7	0	0	0	0	0	496	510	508	31	0	
8	0	0	0	0	1	495	517	508	31	0	
9	0	0	0	0	0	495	522	507	31	0	
10	0	0	0	0	0	503	512	507	31	0	
11	0	0	0	0	0	505	514	508	31	0	
12	0	0	0	0	0	509	511	510	31	0	
13	0	0	0	0	0	507	512	514	31	0	
14	0	0	0	0	0	511	515	513	32	0	
15	0	0	0	0	0	514	523	511	31	0	
0	0	0	0	0	1	513	525	511	31	0	
1	0	0	0	0	0	511	518	510	31	0	
2	0	0	0	0	0	512	511	511	31	0	
3	0	0	0	0	0	506	508	510	31	0	
4	0	0	0	0	0	500	497	510	31	0	
5	0	0	0	0	0	499	498	507	31	0	
6	0	0	0	0	0	501	507	508	31	0	
7	0	0	0	0	0	504	514	506	31	0	
8	0	0	0	0	1	507	510	507	31	0	
9	0	0	0	0	0	510	516	510	31	0	
10	0	0	0	0	0	512	525	508	31	0	
11	0	0	0	0	0	510	531	506	31	0	
12	0	0	0	0	0	507	516	508	31	0	
13	0	0	0	0	0	503	508	509	31	0	
14	0	0	0	0	0	504	514	510	31	0	
15	0	0	0	0	0	499	505	512	31	0	
0	0	0	0	0	1	497	497	513	32	0	
1	0	0	0	0	0	497	495	511	32	0	
2	0	0	0	0	0	496	506	510	32	0	
3	0	0	0	0	0	497	512	509	31	0	
4	0	0	0	0	0	495	516	508	31	0	
5	0	0	0	0	0	500	514	512	31	0	
6	0	0	0	0	0	504	505	511	32	0	
7	0	0	0	0	0	511	499	512	32	0	
8	0	0	0	0	1	513	506	509	31	0	
9	0	0	0	0	0	513	515	509	31	0	
10	0	0	0	0	0	511	525	506	31	0	
11	0	0	0	0	0	509	531	505	31	0	
12	0	0	0	0	0	508	539	504	31	0	
13	0	0	0	0	0	510	537	508	31	0	
14	0	0	0	0	0	507	516	508	31	0	
15	0	0	0	0	0	502	507	511	31	0	
0	0	0	0	0	1	500	504	511	31	0	
1	0	0	0	0	0	507	504	508	31	0	
2	0	0	0	0	0	511	499	510	31	0	
3	0	0	0	0	0	504	499	510	31	0	
4	0	0	0	0	0	504	503	508	31	0	
5	0	0	0	0	0	501	510	509	31	0	
6	0	0	0	0	0	508	513	508	31	0	
7	0	0	0	0	0	508	516	509	31	0	
8	0	0	0	0	1	509	514	510	31	0	
9	0	0	0	0	0	509	521	508	31	0	
10	0	0	0	0	0	510	515	511	31	0	
11	0	0	0	0	0	508	511	510	31	0	
12	0	0	0	0	0	507	510	509	31	0	
13	0	0	0	0	0	500	508	506	32	0	
14	0	0	0	0	0	496	499	509	32	0	
15	0	0	0	0	0	491	503	512	32	0	
0	0	0	0	0	1	492	509	512	32	0	
1	0	0	0	0	0	494	516	511	31	0	
2	0	0	0	0	0	500	516	513	31	0	
3	0	0	0	0	0	508	511	515	32	0	
4	0	0	0	0	0	512	510	510	32	0	
5	0	0	0	0	0	508	509	510	31	0	
6	0	0	0	0	0	507	509	508	31	0	
7	0	0	0	0	0	508	514	508	31	0	
8	0	0	0	0	1	508	519	507	31	0	
9	0	0	0	0	0	507	518	508	31	0	
10	0	0	0	0	0	510	511	508	31	0	
11	0	0	0	0	0	511	515	506	31	0	
12	0	0	0	0	0	513	509	504	31	0	
13	0	0	0	0	0	508	499	508	32	0	
14	0	0	0	0	0	501	496	513	31	0	
15	0	0	0	0	0	503	515	511	31	0	
0	0	0	0	0	1	506	519	513	32	0	
1	0	0	0	0	0	507	527	510	31	0	
2	0	0	0	0	0	502	531	508	31	0	
3	0	0	0	0	0	501	529	507	31	0	
4	0	0	0	0	0	506	528	507	31	0	
5	0	0	0	0	0	500	518	512	31	0	
6	0	0	0	0	0	502	511	509	31	0	
7	0	0	0	0	0	507	506	504	31	0	
8	0	0	0	0	1	508	499	504	31	0	
9	0	0	0	0	0	507	504	507	32	0	
10	0	0	0	0	0	505	519	507	31	0	
11	0	0	0	0	0	505	522	507	31	0	
12	0	0	0	0	0	508	511	509	31	0	
13	0	0	0	0	0	508	507	509	31	0	
14	0	0	0	0	0	508	503	510	32	0	
15	0	0	0	0	0	504	504	511	31	0	
0	0	0	0	0	1	500	504	515	32	0	
1	0	0	0	0	0	497	508	516	32	0	
2	0	0	0	0	0	502	514	510	31	0	
3	0	0	0	0	0	507	507	510	32	0	
4	0	0	0	0	0	510	510	512	32	0	
5	0	0	0	0	0	509	509	507	31	0	
6	0	0	0	0	0	510	505	508	32	0	
7	0	0	0	0	0	505	500	510	32	0	
8	0	0	0	0	1	500	502	514	31	0	
9	0	0	0	0	0	496	510	511	31	0	
10	0	0	0	0	0	501	511	510	31	0	
11	0	0	0	0	0	506	521	505	31	0	
12	0	0	0	0	0	508	526	503	31	0	
13	0	0	0	0	0	506	519	508	31	0	
14	0	0	0	0	0	510	516	507	31	0	
15	0	0	0	0	0	516	509	507	31	0	
0	0	0	0	0	1	513	505	507	31	0	
1	0	0	0	0	0	504	511	508	31	0	
2	0	0	0	0	0	496	523	510	31	0	
3	0	0	0	0	0	499	533	511	31	0	
4	0	0	0	0	0	507	528	509	31	0	
5	0	0	0	0	0	504	512	511	31	0	
6	0	0	0	0	0	503	507	507	31	0	
7	0	0	0	0	0	505	502	508	31	0	
8	0	0	0	0	1	504	497	510	31	0	
9	0	0	0	0	0	505	504	511	32	0	
10	0	0	0	0	0	505	507	510	31	0	
11	0	0	0	0	0	503	518	510	31	0	
12	0	0	0	0	0	501	528	513	31	0	
13	0	0	0	0	0	504	520	511	31	0	
14	0	0	0	0	0	503	506	510	31	0	
15	0	0	0	0	0	509	498	508	32	0	
0	0	0	0	0	1	508	499	507	32	0	
1	0	0	0	0	0	505	503	511	32	0	
2	0	0	0	0	0	504	510	511	32	0	
3	0	0	0	0	0	504	518	510	31	0	
4	0	0	0	0	0	504	520	508	31	0	
5	0	0	0	0	0	504	515	508	31	0	
6	0	0	0	0	0	502	513	509	31	0	
7	0	0	0	0	0	505	512	509	31	0	
8	0	0	0	0	1	507	509	510	31	0	
9	0	0	0	0	0	505	511	508	31	0	
10	0	0	0	0	0	505	509	509	31	0	
11	0	0	0	0	0	503	509	509	31	0	
12	0	0	0	0	0	505	504	509	31	0	
13	0	0	0	0	0	508	505	507	31	0	
14	0	0	0	0	0	508	514	511	31	0	
15	0	0	0	0	0	505	522	510	31	0	
0	0	0	0	0	1	501	530	512	31	0	
1	0	0	0	0	0	500	525	511	31	0	
2	0	0	0	0	0	503	514	507	31	0	
3	0	0	0	0	0	504	505	502	31	0	
4	0	0	0	0	0	514	511	503	31	0	
5	0	0	0	0	0	515	519	507	31	0	
6	0	0	0	0	0	511	516	508	31	0	
7	0	0	0	0	0	508	508	508	31	0	
8	0	0	0	0	1	508	509	505	31	0	
9	0	0	0	0	0	506	508	508	31	0	
10	0	0	0	0	0	503	506	510	31	0	
11	0	0	0	0	0	498	503	512	32	0	
12	0	0	0	0	0	496	503	511	32	0	
13	0	0	0	0	0	495	511	512	31	0	
14	0	0	0	0	0	493	519	518	31	0	
15	0	0	0	0	0	495	524	518	31	0	
0	0	0	0	0	1	503	515	513	31	0	
1	0	0	0	0	0	510	514	508	31	0	
2	0	0	0	0	0	519	508	502	31	0	
3	0	0	0	0	0	526	500	502	31	0	
4	0	0	0	0	0	521	507	504	32	0	
5	0	0	0	0	0	509	526	510	31	0	
6	0	0	0	0	0	492	527	513	31	0	
7	0	0	0	0	0	493	509	515	31	0	
8	0	0	0	0	1	500	505	510	31	0	
9	0	0	0	0	0	504	502	508	31	0	
10	0	0	0	0	0	500	499	508	31	0	
11	0	0	0	0	0	503	503	508	31	0	
12	0	0	0	0	0	504	512	511	31	0	
13	0	0	0	0	0	503	518	511	31	0	
14	0	0	0	0	0	501	517	512	31	0	
15	0	0	0	0	0	506	516	511	31	0	
0	0	0	0	0	1	508	513	511	32	0	
1	0	0	0	0	0	506	511	511	31	0	
2	0	0	0	0	0	505	511	509	31	0	
3	0	0	0	0	0	507	513	508	31	0	
4	0	0	0	0	0	508	511	508	31	0	
5	0	0	0	0	0	504	513	510	31	0	
6	0	0	0	0	0	504	513	508	31	0	
7	0	0	0	0	0	506	513	505	31	0	
8	0	0	0	0	1	507	513	507	31	0	
9	0	0	0	0	0	507	515	505	31	0	
10	0	0	0	0	0	505	514	506	31	0	
11	0	0	0	0	0	504	508	510	32	0	
12	0	0	0	0	0	505	503	509	31	0	
13	0	0	0	0	0	507	504	510	32	0	
14	0	0	0	0	0	504	510	509	32	0	
15	0	0	0	0	0	501	511	511	31	0	
0	0	0	0	0	1	498	523	515	31	0	
1	0	0	0	0	0	499	526	515	31	0	
2	0	0	0	0	0	504	524	510	31	0	
3	0	0	0	0	0	509	520	506	31	0	
4	0	0	0	0	0	513	513	506	31	0	
5	0	0	0	0	0	512	505	508	31	0	
6	0	0	0	0	0	505	500	507	32	0	
7	0	0	0	0	0	502	502	512	32	0	
8	0	0	0	0	1	504	507	513	32	0	
9	0	0	0	0	0	512	507	509	31	0	
10	0	0	0	0	0	516	516	507	31	0	
11	0	0	0	0	0	515	523	507	31	0	
12	0	0	0	0	0	510	524	505	31	0	
13	0	0	0	0	0	508	526	509	31	0	
14	0	0	0	0	0	502	521	510	31	0	
15	0	0	0	0	0	499	513	511	31	0	
0	0	0	0	0	0	499	504	508	31	0	
1	0	0	0	0	0	505	500	509	31	0	
2	0	0	0	0	0	509	495	506	32	0	
3	0	0	0	0	0	510	499	505	32	0	
4	0	0	0	0	0	504	503	508	32	0	
5	0	0	0	0	0	497	508	512	32	0	
6	0	0	0	0	0	499	509	511	31	0	
7	0	0	0	0	0	504	507	510	31	0	
8	0	0	0	0	0	504	516	510	31	0	
9	0	0	0	0	0	498	516	515	31	0	
10	0	0	0	0	0	492	515	516	31	0	
11	0	0	0	0	0	495	516	513	31	0	
12	0	0	0	0	0	499	515	509	31	0	
13	0	0	0	0	0	504	511	511	31	0	
14	0	0	0	0	0	507	515	509	32	0	
15	0	0	0	0	0	508	515	504	32	0	
0	0	0	0	0	1	508	512	504	32	0	
1	0	0	0	0	0	507	513	512	32	0	
2	0	0	0	0	0	506	515	513	31	0	
3	0	0	0	0	0	501	521	514	31	0	
4	0	0	0	0	0	499	519	513	31	0	
5	0	0	0	0	0	508	515	510	31	0	
6	0	0	0	0	0	515	503	503	31	0	
7	0	0	0	0	0	515	497	503	32	0	
8	0	0	0	0	1	515	504	503	32	0	
9	0	0	0	0	0	507	513	508	31	0	
10	0	0	0	0	0	503	515	512	31	0	
11	0	0	0	0	0	505	511	510	32	0	
12	0	0	0	0	0	506	511	510	32	0	
13	0	0	0	0	0	504	519	509	31	0	
14	0	0	0	0	0	504	519	509	31	0	
15	0	0	0	0	0	502	515	511	31	0	
0	0	0	0	0	1	500	507	510	31	0	
1	0	0	0	0	0	503	509	508	31	0	
2	0	0	0	0	0	505	514	511	31	0	
3	0	0	0	0	0	504	514	509	31	0	
4	0	0	0	0	0	504	515	509	32	0	
5	0	0	0	0	0	508	515	504	31	0	
6	0	0	0	0	0	507	506	504	31	0	
7	0	0	0	0	0	504	508	510	32	0	
8	0	0	0	0	1	504	511	512	32	0	
9	0	0	0	0	0	503	516	511	31	0	
10	0	0	0	0	0	505	518	508	31	0	
11	0	0	0	0	0	506	515	509	31	0	
12	0	0	0	0	0	508	510	507	32	0	
13	0	0	0	0	0	508	512	507	31	0	
14	0	0	0	0	0	505	515	510	31	0	
15	0	0	0	0	0	504	520	512	31	0	
0	0	0	0	0	1	503	526	513	30	0	
1	0	0	0	0	0	500	519	509	30	0	
2	0	0	0	0	0	502	505	505	31	0	
3	0	0	0	0	0	507	491	506	32	0	
4	0	0	0	0	0	508	493	508	32	0	
5	0	0	0	0	0	511	504	508	32	0	
6	0	0	0	0	0	508	504	505	32	0	
7	0	0	0	0	0	505	509	508	32	0	
8	0	0	0	0	1	500	512	513	31	0	
9	0	0	0	0	0	500	512	516	32	0	
10	0	0	0	0	0	501	513	514	31	0	
11	0	0	0	0	0	503	514	512	31	0	
12	0	0	0	0	0	501	513	511	31	0	
13	0	0	0	0	0	504	513	515	31	0	
14	0	0	0	0	0	506	518	512	32	0	
15	0	0	0	0	0	508	519	505	31	0	
0	0	0	0	0	1	507	519	507	31	0	
1	0	0	0	0	0	505	513	507	31	0	
2	0	0	0	0	0	508	508	507	31	0	
3	0	0	0	0	0	507	514	510	32	0	
4	0	0	0	0	0	510	519	507	31	0	
5	0	0	0	0	0	512	519	506	31	0	
6	0	0	0	0	0	513	513	502	31	0	
7	0	0	0	0	0	513	509	497	31	0	
8	0	0	0	0	1	508	507	503	31	0	
9	0	0	0	0	0	496	509	514	31	0	
10	0	0	0	0	0	493	512	519	31	0	
11	0	0	0	0	0	492	512	519	31	0	
12	0	0	0	0	0	501	510	512	31	0	
13	0	0	0	0	0	502	507	510	31	0	
14	0	0	0	0	0	502	511	508	31	0	
15	0	0	0	0	0	510	511	506	31	0	
0	0	0	0	0	1	505	515	509	31	0	
1	0	0	0	0	0	507	516	510	31	0	
2	0	0	0	0	0	506	515	508	31	0	
3	0	0	0	0	0	507	511	506	31	0	
4	0	0	0	0	0	507	507	506	31	0	
5	0	0	0	0	0	505	508	511	32	0	
6	0	0	0	0	0	506	512	513	31	0	
7	0	0	0	0	0	505	512	509	31	0	
8	0	0	0	0	1	508	514	508	31	0	
9	0	0	0	0	0	507	516	506	31	0	
10	0	0	0	0	0	508	510	507	31	0	
11	0	0	0	0	0	507	509	511	31	0	
12	0	0	0	0	0	507	507	509	31	0	
13	0	0	0	0	0	507	508	509	31	0	
14	0	0	0	0	0	505	511	509	31	0	
15	0	0	0	0	0	502	516	510	31	0	
0	0	0	0	0	1	503	517	511	31	0	
1	0	0	0	0	0	505	519	509	31	0	
2	0	0	0	0	0	505	513	506	31	0	
3	0	0	0	0	0	506	512	509	31	0	
4	0	0	0	0	0	504	512	511	31	0	
5	0	0	0	0	0	504	511	511	31	0	
6	0	0	0	0	0	505	515	512	32	0	
7	0	0	0	0	0	505	515	508	31	0	
8	0	0	0	0	1	507	513	507	31	0	
9	0	0	0	0	0	504	508	511	31	0	
10	0	0	0	0	0	503	509	512	31	0	
11	0	0	0	0	0	500	513	513	31	0	
12	0	0	0	0	0	504	511	510	31	0	
13	0	0	0	0	0	506	510	510	32	0	
14	0	0	0	0	0	509	510	509	32	0	
15	0	0	0	0	0	506	511	509	31	0	
0	0	0	0	0	1	508	514	507	31	0	
1	0	0	0	0	0	505	513	508	31	0	
2	0	0	0	0	0	503	516	510	31	0	
3	0	0	0	0	0	502	513	512	31	0	
4	0	0	0	0	0	508	511	508	31	0	
5	0	0	0	0	0	508	512	505	31	0	
6	0	0	0	0	0	504	513	508	31	0	
7	0	0	0	0	0	501	510	509	31	0	
8	0	0	0	0	1	503	510	508	31	0	
9	0	0	0	0	0	504	512	509	31	0	
10	0	0	0	0	0	504	513	511	32	0	
11	0	0	0	0	0	504	511	511	31	0	
12	0	0	0	0	0	503	510	512	32	0	
13	0	0	0	0	0	507	511	508	32	0	
14	0	0	0	0	0	506	512	509	31	0	
15	0	0	0	0	0	504	512	511	32	0	
0	0	0	0	0	1	504	510	510	31	0	
1	0	0	0	0	0	506	510	513	31	0	
2	0	0	0	0	0	507	511	509	31	0	
3	0	0	0	0	0	508	512	507	31	0	
4	0	0	0	0	0	508	513	510	31	0	
5	0	0	0	0	0	507	514	511	31	0	
6	0	0	0	0	0	505	511	511	31	0	
7	0	0	0	0	0	504	508	508	31	0	
8	0	0	0	0	1	503	508	507	31	0	
9	0	0	0	0	0	505	512	510	31	0	
10	0	0	0	0	0	503	512	508	31	0	
11	0	0	0	0	0	502	513	508	31	0	
12	0	0	0	0	0	503	515	509	31	0	
13	0	0	0	0	0	504	513	510	31	0	
14	0	0	0	0	0	508	514	508	31	0	
15	0	0	0	0	0	508	515	506	31	0	
0	0	0	0	0	1	507	515	508	31	0	
1	0	0	0	0	0	507	514	508	31	0	
2	0	0	0	0	0	506	510	508	31	0	
3	0	0	0	0	0	506	512	509	31	0	
4	0	0	0	0	0	506	511	510	31	0	
5	0	0	0	0	0	507	511	512	32	0	
6	0	0	0	0	0	504	511	513	32	0	
7	0	0	0	0	0	502	511	510	32	0	
8	0	0	0	0	1	502	511	510	31	0	
9	0	0	0	0	0	504	511	508	31	0	
10	0	0	0	0	0	504	511	509	31	0	
11	0	0	0	0	0	504	512	509	31	0	
12	0	0	0	0	0	505	513	507	31	0	
13	0	0	0	0	0	505	515	508	31	0	
14	0	0	0	0	0	502	513	508	31	0	
15	0	0	0	0	0	502	512	508	31	0	
0	0	0	0	0	1	504	513	508	31	0	
1	0	0	0	0	0	507	511	509	31	0	
2	0	0	0	0	0	509	515	508	31	0	
3	0	0	0	0	0	509	518	510	31	0	
4	0	0	0	0	0	505	515	509	31	0	
5	0	0	0	0	0	507	512	508	31	0	
6	0	0	0	0	0	508	515	507	31	0	
7	0	0	0	0	0	506	514	506	31	0	
8	0	0	0	0	1	507	513	507	31	0	
9	0	0	0	0	0	507	514	508	31	0	
10	0	0	0	0	0	507	513	510	31	0	
11	0	0	0	0	0	504	513	512	31	0	
12	0	0	0	0	0	504	512	511	31	0	
13	0	0	0	0	0	508	513	510	31	0	
14	0	0	0	0	0	508	512	509	31	0	
15	0	0	0	0	0	505	512	509	31	0	
0	0	0	0	0	1	507	508	510	32	0	
1	0	0	0	0	0	505	509	513	32	0	
2	0	0	0	0	0	506	510	510	32	0	
3	0	0	0	0	0	504	508	508	31	0	
4	0	0	0	0	0	505	511	508	31	0	
5	0	0	0	0	0	506	512	507	31	0	
6	0	0	0	0	0	504	511	510	31	0	
7	0	0	0	0	0	503	512	508	31	0	
8	0	0	0	0	1	504	512	508	31	0	
9	0	0	0	0	0	504	512	506	31	0	
10	0	0	0	0	0	504	514	505	31	0	
11	0	0	0	0	0	505	514	505	31	0	
12	0	0	0	0	0	507	513	508	31	0	
13	0	0	0	0	0	505	511	509	31	0	
14	0	0	0	0	0	503	509	508	31	0	
15	0	0	0	0	0	501	510	509	31	0	
0	0	0	0	0	1	502	510	511	31	0	
1	0	0	0	0	0	503	510	510	31	0	
2	0	0	0	0	0	504	511	512	31	0	
3	0	0	0	0	0	503	512	511	31	0	
4	0	0	0	0	0	505	512	511	31	0	
5	0	0	0	0	0	506	512	511	31	0	
6	0	0	0	0	0	506	512	508	31	0	
7	0	0	0	0	0	505	513	508	31	0	
8	0	0	0	0	1	505	513	510	31	0	
9	0	0	0	0	0	504	512	510	31	0	
10	0	0	0	0	0	502	514	511	31	0	
11	0	0	0	0	0	501	514	513	31	0	
12	0	0	0	0	0	503	517	511	31	0	
13	0	0	0	0	0	505	516	512	31	0	
14	0	0	0	0	0	510	513	509	32	0	
15	0	0	0	0	0	509	511	509	32	0	
0	0	0	0	0	1	509	510	507	31	0	
1	0	0	0	0	0	507	509	506	31	0	
2	0	0	0	0	0	505	508	504	31	0	
3	0	0	0	0	0	504	509	510	31	0	
4	0	0	0	0	0	502	509	513	31	0	
5	0	0	0	0	0	501	508	511	31	0	
6	0	0	0	0	0	501	511	511	31	0	
7	0	0	0	0	0	504	508	511	32	0	
8	0	0	0	0	0	507	509	509	31	0	
9	0	0	0	0	0	508	510	508	31	0	
10	0	0	0	0	0	507	512	508	31	0	
11	0	0	0	0	0	505	514	510	31	0	
12	0	0	0	0	0	504	513	510	31	0	
13	0	0	0	0	0	505	513	509	31	0	
14	0	0	0	0	0	504	513	512	31	0	
15	0	0	0	0	0	504	515	508	31	0	
0	0	0	0	0	0	504	518	508	31	0	
1	0	0	0	0	0	504	514	507	31	0	
2	0	0	0	0	0	507	511	507	31	0	
3	0	0	0	0	0	505	513	510	31	0	
4	0	0	0	0	0	504	512	512	31	0	
5	0	0	0	0	0	502	512	512	31	0	
6	0	0	0	0	0	504	510	508	31	0	
7	0	0	0	0	0	507	510	508	32	0	
8	0	0	0	0	0	505	512	508	31	0	
9	0	0	0	0	0	505	513	507	31	0	
10	0	0	0	0	0	504	509	509	31	0	
11	0	0	0	0	0	503	510	509	31	0	
12	0	0	0	0	0	506	508	509	32	0	
13	0	0	0	0	0	504	511	510	32	0	
14	0	0	0	0	0	508	513	509	31	0	
15	0	0	0	0	0	511	513	506	31	0	
0	0	0	0	0	1	508	512	507	31	0	
1	0	0	0	0	0	507	513	507	31	0	
2	0	0	0	0	0	505	512	510	31	0	
3	0	0	0	0	0	502	510	514	31	0	
4	0	0	0	0	0	501	509	510	31	0	
5	0	0	0	0	0	504	507	508	31	0	
6	0	0	0	0	0	504	510	507	31	0	
7	0	0	0	0	0	504	514	509	31	0	
8	0	0	0	0	1	505	513	507	31	0	
9	0	0	0	0	0	504	517	511	31	0	
10	0	0	0	0	0	506	515	506	31	0	
11	0	0	0	0	0	505	509	509	31	0	
12	0	0	0	0	0	504	508	510	31	0	
13	0	0	0	0	0	507	512	508	32	0	
14	0	0	0	0	0	506	514	510	31	0	
15	0	0	0	0	0	505	516	509	31	0	
0	0	0	0	0	1	505	518	508	31	0	
1	0	0	0	0	0	507	512	506	31	0	
2	0	0	0	0	0	508	512	506	32	0	
3	0	0	0	0	0	504	511	511	31	0	
4	0	0	0	0	0	506	510	509	31	0	
5	0	0	0	0	0	502	513	512	31	0	
6	0	0	0	0	0	503	510	510	31	0	
7	0	0	0	0	0	501	508	513	31	0	
8	0	0	0	0	1	500	510	515	31	0	
9	0	0	0	0	0	500	511	514	31	0	
10	0	0	0	0	0	501	512	512	32	0	
11	0	0	0	0	0	505	509	509	32	0	
12	0	0	0	0	0	507	508	507	31	0	
13	0	0	0	0	0	506	508	510	31	0	
14	0	0	0	0	0	507	510	509	31	0	
15	0	0	0	0	0	508	513	507	31	0	
0	0	0	0	0	1	508	517	508	31	0	
1	0	0	0	0	0	508	515	507	31	0	
2	0	0	0	0	0	506	512	509	31	0	
3	0	0	0	0	0	508	512	508	31	0	
4	0	0	0	0	0	507	513	508	31	0	
5	0	0	0	0	0	505	511	508	31	0	
6	0	0	0	0	0	505	512	509	31	0	
7	0	0	0	0	0	506	514	507	31	0	
8	0	0	0	0	1	504	515	509	31	0	
9	0	0	0	0	0	506	515	509	31	0	
10	0	0	0	0	0	505	515	510	31	0	
11	0	0	0	0	0	505	513	510	31	0	
12	0	0	0	0	0	506	510	511	31	0	
13	0	0	0	0	0	505	512	506	31	0	
14	0	0	0	0	0	506	512	510	31	0	
15	0	0	0	0	0	507	509	509	31	0	
0	0	0	0	0	1	504	510	510	31	0	
1	0	0	0	0	0	504	512	510	31	0	
2	0	0	0	0	0	502	513	510	31	0	
3	0	0	0	0	0	503	513	508	31	0	
4	0	0	0	0	0	506	513	505	31	0	
5	0	0	0	0	0	507	515	507	31	0	
6	0	0	0	0	0	508	513	509	31	0	
7	0	0	0	0	0	508	514	508	31	0	
8	0	0	0	0	1	508	511	508	31	0	
9	0	0	0	0	0	504	511	508	32	0	
10	0	0	0	0	0	504	510	510	32	0	
11	0	0	0	0	0	507	509	508	31	0	
12	0	0	0	0	0	506	511	506	31	0	
13	0	0	0	0	0	506	511	506	31	0	
14	0	0	0	0	0	505	510	508	32	0	
15	0	0	0	0	0	505	512	510	31	0	
0	0	0	0	0	1	503	516	511	31	0	
1	0	0	0	0	0	502	515	509	31	0	
2	0	0	0	0	0	500	515	510	31	0	
3	0	0	0	0	0	504	515	508	31	0	
4	0	0	0	0	0	503	515	509	31	0	
5	0	0	0	0	0	504	512	512	31	0	
6	0	0	0	0	0	504	507	511	32	0	
7	0	0	0	0	0	505	506	510	32	0	
8	0	0	0	0	1	505	506	510	31	0	
9	0	0	0	0	0	504	508	511	31	0	
10	0	0	0	0	0	505	513	510	31	0	
11	0	0	0	0	0	505	513	508	31	0	
12	0	0	0	0	0	505	508	508	31	0	
13	0	0	0	0	0	508	510	510	31	0	
14	0	0	0	0	0	505	510	509	31	0	
15	0	0	0	0	0	507	511	509	31	0	
0	0	0	0	0	1	505	514	508	31	0	
1	0	0	0	0	0	507	515	509	31	0	
2	0	0	0	0	0	507	516	508	31	0	
3	0	0	0	0	0	504	511	512	31	0	
4	0	0	0	0	0	502	511	512	31	0	
5	0	0	0	0	0	504	514	510	31	0	
6	0	0	0	0	0	505	514	511	31	0	
7	0	0	0	0	0	504	515	511	31	0	
8	0	0	0	0	1	505	512	507	31	0	
9	0	0	0	0	0	504	510	510	31	0	
10	0	0	0	0	0	504	511	512	31	0	
11	0	0	0	0	0	505	510	508	31	0	
12	0	0	0	0	0	504	511	508	31	0	
13	0	0	0	0	0	506	508	509	32	0	
14	0	0	0	0	0	507	510	510	32	0	
15	0	0	0	0	0	506	513	511	31	0	
0	0	0	0	0	1	507	515	511	31	0	
1	0	0	0	0	0	506	512	508	31	0	
2	0	0	0	0	0	504	512	508	31	0	
3	0	0	0	0	0	504	513	510	31	0	
4	0	0	0	0	0	506	515	512	31	0	
5	0	0	0	0	0	507	513	508	31	0	
6	0	0	0	0	0	507	513	510	31	0	
7	0	0	0	0	0	504	511	508	31	0	
8	0	0	0	0	1	505	510	509	31	0	
9	0	0	0	0	0	507	509	507	31	0	
10	0	0	0	0	0	507	510	510	31	0	
11	0	0	0	0	0	505	512	510	31	0	
12	0	0	0	0	0	504	516	510	31	0	
13	0	0	0	0	0	504	518	511	31	0	
14	0	0	0	0	0	503	516	512	31	0	
15	0	0	0	0	0	504	514	511	31	0	
0	0	0	0	0	1	503	513	511	31	0	
1	0	0	0	0	0	503	508	510	31	0	
2	0	0	0	0	0	503	510	511	31	0	
3	0	0	0	0	0	504	508	510	31	0	
4	0	0	0	0	0	505	510	508	31	0	
5	0	0	0	0	0	507	510	508	31	0	
6	0	0	0	0	0	507	515	508	31	0	
7	0	0	0	0	0	506	512	510	31	0	
8	0	0	0	0	1	505	508	510	31	0	
9	0	0	0	0	0	505	510	508	31	0	
10	0	0	0	0	0	507	513	508	31	0	
11	0	0	0	0	0	504	517	506	31	0	
12	0	0	0	0	0	506	518	508	31	0	
13	0	0	0	0	0	506	514	510	31	0	
14	0	0	0	0	0	507	511	512	31	0	
15	0	0	0	0	0	504	511	511	31	0	
0	0	0	0	0	1	505	512	510	31	0	
1	0	0	0	0	0	504	512	510	31	0	
2	0	0	0	0	0	504	509	510	31	0	
3	0	0	0	0	0	503	510	510	31	0	
4	0	0	0	0	0	504	512	510	31	0	
5	0	0	0	0	0	504	511	512	31	0	
6	0	0	0	0	0	507	515	512	31	0	
7	0	0	0	0	0	503	517	511	31	0	
8	0	0	0	0	1	505	517	510	31	0	
9	0	0	0	0	0	506	515	505	31	0	
10	0	0	0	0	0	502	512	508	31	0	
11	0	0	0	0	0	504	512	511	31	0	
12	0	0	0	0	0	505	512	510	31	0	
13	0	0	0	0	0	505	509	508	31	0	
14	0	0	0	0	0	505	510	511	31	0	
15	0	0	0	0	0	506	511	510	31	0	
0	0	0	0	0	1	505	510	509	31	0	
1	0	0	0	0	0	506	512	509	31	0	
2	0	0	0	0	0	506	510	508	31	0	
3	0	0	0	0	0	507	515	508	31	0	
4	0	0	0	0	0	506	515	507	31	0	
5	0	0	0	0	0	504	511	509	31	0	
6	0	0	0	0	0	504	510	510	31	0	
7	0	0	0	0	0	502	513	510	31	0	
8	0	0	0	0	1	504	512	511	31	0	
9	0	0	0	0	0	500	513	510	31	0	
10	0	0	0	0	0	503	513	509	31	0	
11	0	0	0	0	0	505	513	508	31	0	
12	0	0	0	0	0	507	508	509	31	0	
13	0	0	0	0	0	506	510	510	31	0	
14	0	0	0	0	0	507	513	510	31	0	
15	0	0	0	0	0	507	515	510	31	0	
0	0	0	0	0	1	507	514	508	31	0	
1	0	0	0	0	0	507	514	509	31	0	
2	0	0	0	0	0	505	510	509	32	0	
3	0	0	0	0	0	503	508	511	32	0	
4	0	0	0	0	0	505	504	512	31	0	
5	0	0	0	0	0	504	504	511	31	0	
6	0	0	0	0	0	504	508	508	32	0	
7	0	0	0	0	0	504	514	511	32	0	
8	0	0	0	0	1	504	517	511	32	0	
9	0	0	0	0	0	504	516	511	31	0	
10	0	0	0	0	0	503	515	510	31	0	
11	0	0	0	0	0	502	514	509	31	0	
12	0	0	0	0	0	503	514	508	31	0	
13	0	0	0	0	0	508	512	507	31	0	
14	0	0	0	0	0	508	511	509	31	0	
15	0	0	0	0	0	506	507	506	31	0	
0	0	0	0	0	1	507	511	508	31	0	
1	0	0	0	0	0	507	515	509	31	0	
2	0	0	0	0	0	505	513	508	31	0	
3	0	0	0	0	0	506	512	510	32	0	
4	0	0	0	0	0	505	510	509	31	0	
5	0	0	0	0	0	503	510	511	31	0	
6	0	0	0	0	0	504	510	510	31	0	
7	0	0	0	0	0	503	513	508	31	0	
8	0	0	0	0	1	501	517	511	31	0	
9	0	0	0	0	0	503	518	511	31	0	
10	0	0	0	0	0	504	511	509	31	0	
11	0	0	0	0	0	507	510	508	31	0	
12	0	0	0	0	0	506	512	508	31	0	
13	0	0	0	0	0	505	517	510	31	0	
14	0	0	0	0	0	506	516	509	31	0	
15	0	0	0	0	0	506	513	510	31	0	
0	0	0	0	0	0	506	510	511	31	0	
1	0	0	0	0	0	505	509	508	31	0	
2	0	0	0	0	0	508	510	507	31	0	
3	0	0	0	0	0	508	510	507	31	0	
4	0	0	0	0	0	507	508	509	31	0	
5	0	0	0	0	0	507	507	505	31	0	
6	0	0	0	0	0	504	513	507	31	0	
7	0	0	0	0	0	503	515	511	31	0	
8	0	0	0	0	0	503	513	509	31	0	
9	0	0	0	0	0	507	516	510	31	0	
10	0	0	0	0	0	504	515	508	31	0	
11	0	0	0	0	0	507	517	508	31	0	
12	0	0	0	0	0	507	513	508	31	0	
13	0	0	0	0	0	505	510	505	31	0	
14	0	0	0	0	0	504	511	509	31	0	
15	0	0	0	0	0	504	511	511	31	0	
0	0	0	0	0	0	503	508	508	31	0	
1	0	0	0	0	0	505	505	509	31	0	
2	0	0	0	0	0	508	509	509	31	0	
3	0	0	0	0	0	505	513	508	31	0	
4	0	0	0	0	0	501	517	510	31	0	
5	0	0	0	0	0	500	515	511	31	0	
6	0	0	0	0	0	504	513	509	31	0	
7	0	0	0	0	0	504	512	509	31	0	
8	0	0	0	0	1	504	510	511	31	0	
9	0	0	0	0	0	505	509	509	31	0	
10	0	0	0	0	0	506	511	508	31	0	
11	0	0	0	0	0	506	514	510	31	0	
12	0	0	0	0	0	508	514	508	31	0	
13	0	0	0	0	0	508	514	505	31	0	
14	0	0	0	0	0	508	511	510	31	0	
15	0	0	0	0	0	509	511	510	31	0	
0	0	0	0	0	1	506	514	510	31	0	
1	0	0	0	0	0	503	515	511	31	0	
2	0	0	0	0	0	504	513	511	31	0	
3	0	0	0	0	0	503	512	510	31	0	
4	0	0	0	0	0	503	512	510	31	0	
5	0	0	0	0	0	507	510	508	31	0	
6	0	0	0	0	0	505	512	510	31	0	
7	0	0	0	0	0	503	512	511	31	0	
8	0	0	0	0	1	503	512	510	32	0	
9	0	0	0	0	0	504	512	508	32	0	
10	0	0	0	0	0	505	506	508	31	0	
11	0	0	0	0	0	505	506	510	31	0	
12	0	0	0	0	0	507	509	510	31	0	
13	0	0	0	0	0	504	514	511	31	0	
14	0	0	0	0	0	503	518	510	31	0	
15	0	0	0	0	0	504	520	509	31	0	
0	0	0	0	0	1	503	517	509	31	0	
1	0	0	0	0	0	508	511	511	31	0	
2	0	0	0	0	0	511	505	509	32	0	
3	0	0	0	0	0	508	506	509	31	0	
4	0	0	0	0	0	506	511	510	31	0	
5	0	0	0	0	0	504	511	511	32	0	
6	0	0	0	0	0	503	512	509	31	0	
7	0	0	0	0	0	505	513	508	31	0	
8	0	0	0	0	1	503	514	509	31	0	
9	0	0	0	0	0	503	514	509	31	0	
10	0	0	0	0	0	505	513	508	31	0	
11	0	0	0	0	0	505	513	509	31	0	
12	0	0	0	0	0	504	511	509	31	0	
13	0	0	0	0	0	503	512	510	31	0	
14	0	0	0	0	0	504	513	509	31	0	
15	0	0	0	0	0	505	512	508	31	0	
0	0	0	0	0	1	504	515	511	31	0	
1	0	0	0	0	0	505	512	510	31	0	
2	0	0	0	0	0	507	512	507	31	0	
3	0	0	0	0	0	509	513	508	31	0	
4	0	0	0	0	0	507	514	511	31	0	
5	0	0	0	0	0	508	513	512	31	0	
6	0	0	0	0	0	508	512	510	31	0	
7	0	0	0	0	0	505	515	510	31	0	
8	0	0	0	0	1	506	511	511	31	0	
9	0	0	0	0	0	506	508	511	31	0	
10	0	0	0	0	0	503	504	509	31	0	
11	0	0	0	0	0	500	511	511	31	0	
12	0	0	0	0	0	503	511	507	31	0	
13	0	0	0	0	0	505	512	506	32	0	
14	0	0	0	0	0	504	510	507	31	0	
15	0	0	0	0	0	502	507	508	31	0	
0	0	0	0	0	1	505	513	508	31	0	
1	0	0	0	0	0	505	516	510	31	0	
2	0	0	0	0	0	508	512	510	31	0	
3	0	0	0	0	0	507	511	508	31	0	
4	0	0	0	0	0	508	514	508	31	0	
5	0	0	0	0	0	509	517	508	31	0	
6	0	0	0	0	0	505	521	509	31	0	
7	0	0	0	0	0	501	515	513	31	0	
8	0	0	0	0	1	504	511	509	31	0	
9	0	0	0	0	0	503	514	507	31	0	
10	0	0	0	0	0	502	511	511	31	0	
11	0	0	0	0	0	499	511	512	31	0	
12	0	0	0	0	0	504	508	509	31	0	
13	0	0	0	0	0	509	507	508	32	0	
14	0	0	0	0	0	511	505	509	32	0	
15	0	0	0	0	0	508	507	510	32	0	
0	0	0	0	0	1	504	508	512	31	0	
1	0	0	0	0	0	502	510	512	31	0	
2	0	0	0	0	0	502	512	510	31	0	
3	0	0	0	0	0	504	512	509	31	0	
4	0	0	0	0	0	508	514	510	31	0	
5	0	0	0	0	0	505	516	508	31	0	
6	0	0	0	0	0	505	517	508	31	0	
7	0	0	0	0	0	506	514	504	31	0	
8	0	0	0	0	1	513	514	500	31	0	
9	0	0	0	0	0	513	516	499	31	0	
10	0	0	0	0	0	507	519	507	31	0	
11	0	0	0	0	0	489	515	521	32	0	
12	0	0	0	0	0	496	512	516	31	0	
13	0	0	0	0	0	510	513	505	31	0	
14	0	0	0	0	0	512	514	504	31	0	
15	0	0	0	0	0	508	511	506	31	0	
0	0	0	0	0	1	505	513	511	31	0	
1	0	0	0	0	0	504	509	513	31	0	
2	0	0	0	0	0	504	506	511	31	0	
3	0	0	0	0	0	506	506	508	31	0	
4	0	0	0	0	0	508	508	504	31	0	
5	0	0	0	0	0	502	509	505	31	0	
6	0	0	0	0	0	498	509	513	31	0	
7	0	0	0	0	0	495	507	517	32	0	
8	0	0	0	0	1	500	507	512	32	0	
9	0	0	0	0	0	508	516	506	31	0	
10	0	0	0	0	0	507	522	504	31	0	
11	0	0	0	0	0	508	525	506	31	0	
12	0	0	0	0	0	505	521	509	31	0	
13	0	0	0	0	0	507	516	508	31	0	
14	0	0	0	0	0	515	510	501	31	0	
15	0	0	0	0	0	513	508	503	31	0	
0	0	0	0	0	1	506	506	512	32	0	
1	0	0	0	0	0	499	508	521	32	0	
2	0	0	0	0	0	504	510	512	32	0	
3	0	0	0	0	0	506	511	508	31	0	
4	0	0	0	0	0	506	507	507	31	0	
5	0	0	0	0	0	501	512	509	31	0	
6	0	0	0	0	0	501	512	511	31	0	
7	0	0	0	0	0	504	515	511	31	0	
8	0	0	0	0	1	509	515	509	31	0	
9	0	0	0	0	0	506	513	510	31	0	
10	0	0	0	0	0	511	510	508	31	0	
11	0	0	0	0	0	509	511	508	31	0	
12	0	0	0	0	0	508	511	506	31	0	
13	0	0	0	0	0	505	514	506	31	0	
14	0	0	0	0	0	502	513	510	31	0	
15	0	0	0	0	0	497	513	514	31	0	
0	0	0	0	0	1	496	512	512	31	0	
1	0	0	0	0	0	500	511	512	32	0	
2	0	0	0	0	0	504	512	511	31	0	
3	0	0	0	0	0	500	513	510	31	0	
4	0	0	0	0	0	500	515	509	31	0	
5	0	0	0	0	0	511	516	504	31	0	
6	0	0	0	0	0	520	515	500	31	0	
7	0	0	0	0	0	519	511	501	31	0	
8	0	0	0	0	1	514	508	504	31	0	
9	0	0	0	0	0	504	503	515	32	0	
10	0	0	0	0	0	495	501	520	32	0	
11	0	0	0	0	0	497	507	516	32	0	
12	0	0	0	0	0	502	511	508	31	0	
13	0	0	0	0	0	508	522	504	31	0	
14	0	0	0	0	0	505	521	508	31	0	
15	0	0	0	0	0	500	516	511	31	0	
0	0	0	0	0	1	493	517	514	31	0	
1	0	0	0	0	0	492	512	515	31	0	
2	0	0	0	0	0	501	505	507	31	0	
3	0	0	0	0	0	513	507	502	31	0	
4	0	0	0	0	0	519	513	500	31	0	
5	0	0	0	0	0	519	518	504	31	0	
6	0	0	0	0	0	515	523	505	31	0	
7	0	0	0	0	0	510	521	508	31	0	
8	0	0	0	0	1	507	515	511	31	0	
9	0	0	0	0	0	503	509	510	32	0	
10	0	0	0	0	0	497	506	511	32	0	
11	0	0	0	0	0	499	504	511	31	0	
12	0	0	0	0	0	499	505	511	31	0	
13	0	0	0	0	0	499	503	512	32	0	
14	0	0	0	0	0	503	502	512	31	0	
15	0	0	0	0	0	502	511	513	31	0	
0	0	0	0	0	1	504	517	511	31	0	
1	0	0	0	0	0	515	523	503	31	0	
2	0	0	0	0	0	514	520	503	31	0	
3	0	0	0	0	0	505	513	509	31	0	
4	0	0	0	0	0	497	511	512	31	0	
5	0	0	0	0	0	495	505	512	31	0	
6	0	0	0	0	0	492	504	512	31	0	
7	0	0	0	0	0	496	511	511	32	0	
8	0	0	0	0	1	505	511	507	31	0	
9	0	0	0	0	0	519	509	501	31	0	
10	0	0	0	0	0	521	509	500	31	0	
11	0	0	0	0	0	512	509	507	31	0	
12	0	0	0	0	0	508	507	509	32	0	
13	0	0	0	0	0	504	511	509	31	0	
14	0	0	0	0	0	504	518	510	31	0	
15	0	0	0	0	0	506	527	506	31	0	
0	0	0	0	0	1	505	530	510	31	0	
1	0	0	0	0	0	505	522	508	31	0	
2	0	0	0	0	0	504	515	509	31	0	
3	0	0	0	0	0	507	511	510	31	0	
4	0	0	0	0	0	505	511	508	31	0	
5	0	0	0	0	0	507	509	506	31	0	
6	0	0	0	0	0	505	510	505	31	0	
7	0	0	0	0	0	506	505	504	31	0	
8	0	0	0	0	1	505	506	508	31	0	
9	0	0	0	0	0	504	507	512	31	0	
10	0	0	0	0	0	506	506	512	31	0	
11	0	0	0	0	0	504	509	509	31	0	
12	0	0	0	0	0	505	513	511	32	0	
13	0	0	0	0	0	502	518	513	31	0	
14	0	0	0	0	0	503	523	512	32	0	
15	0	0	0	0	0	503	521	513	32	0	
0	0	0	0	0	1	505	518	510	31	0	
1	0	0	0	0	0	506	508	508	31	0	
2	0	0	0	0	0	502	504	509	31	0	
3	0	0	0	0	0	502	498	509	31	0	
4	0	0	0	0	0	507	506	510	31	0	
5	0	0	0	0	0	507	517	507	31	0	
6	0	0	0	0	0	507	531	508	31	0	
7	0	0	0	0	0	505	526	506	31	0	
8	0	0	0	0	1	505	514	508	31	0	
9	0	0	0	0	0	500	507	509	31	0	
10	0	0	0	0	0	502	502	510	32	0	
11	0	0	0	0	0	504	504	512	31	0	
12	0	0	0	0	0	500	507	512	31	0	
13	0	0	0	0	0	504	514	511	31	0	
14	0	0	0	0	0	506	516	507	31	0	
15	0	0	0	0	0	504	510	511	32	0	
0	0	0	0	0	0	507	508	511	32	0	
1	0	0	0	0	0	511	504	509	31	0	
2	0	0	0	0	0	506	505	512	31	0	
3	0	0	0	0	0	505	509	512	31	0	
4	0	0	0	0	0	504	512	509	31	0	
5	0	0	0	0	0	505	513	509	31	0	
6	0	0	0	0	0	513	512	505	31	0	
7	0	0	0	0	0	513	511	504	31	0	
8	0	0	0	0	0	508	512	507	31	0	
9	0	0	0	0	0	502	513	509	31	0	
10	0	0	0	0	0	499	511	508	31	0	
11	0	0	0	0	0	500	517	509	31	0	
12	0	0	0	0	0	502	519	511	31	0	
13	0	0	0	0	0	507	516	509	31	0	
14	0	0	0	0	0	508	511	508	31	0	
15	0	0	0	0	0	502	513	510	31	0	
0	0	0	0	0	1	500	508	512	32	0	
1	0	0	0	0	0	499	505	509	31	0	
2	0	0	0	0	0	502	507	510	32	0	
3	0	0	0	0	0	504	509	509	32	0	
4	0	0	0	0	0	503	507	512	32	0	
5	0	0	0	0	0	505	512	513	31	0	
6	0	0	0	0	0	508	512	508	31	0	
7	0	0	0	0	0	515	504	504	31	0	
8	0	0	0	0	1	515	507	504	31	0	
9	0	0	0	0	0	510	512	507	31	0	
10	0	0	0	0	0	504	521	510	31	0	
11	0	0	0	0	0	498	529	509	31	0	
12	0	0	0	0	0	496	532	513	31	0	
13	0	0	0	0	0	496	527	513	31	0	
14	0	0	0	0	0	503	510	511	32	0	
15	0	0	0	0	0	508	502	510	32	0	
0	0	0	0	0	1	503	503	512	32	0	
1	0	0	0	0	0	496	504	509	32	0	
2	0	0	0	0	0	499	506	509	32	0	
3	0	0	0	0	0	504	511	507	31	0	
4	0	0	0	0	0	509	511	507	31	0	
5	0	0	0	0	0	508	508	509	31	0	
6	0	0	0	0	0	508	508	509	31	0	
7	0	0	0	0	0	511	511	505	31	0	
8	0	0	0	0	1	510	514	507	31	0	
9	0	0	0	0	0	512	514	508	31	0	
10	0	0	0	0	0	510	518	508	31	0	
11	0	0	0	0	0	508	518	506	31	0	
12	0	0	0	0	0	502	516	508	31	0	
13	0	0	0	0	0	497	510	511	31	0	
14	0	0	0	0	0	499	509	514	32	0	
15	0	0	0	0	0	501	510	508	31	0	
0	0	0	0	0	1	508	507	508	32	0	
1	0	0	0	0	0	512	506	510	32	0	
2	0	0	0	0	0	512	505	511	32	0	
3	0	0	0	0	0	502	509	512	32	0	
4	0	0	0	0	0	501	505	513	31	0	
5	0	0	0	0	0	505	509	511	31	0	
6	0	0	0	0	0	504	508	510	31	0	
7	0	0	0	0	0	503	508	509	31	0	
8	0	0	0	0	1	506	518	508	31	0	
9	0	0	0	0	0	510	523	507	31	0	
10	0	0	0	0	0	510	523	511	31	0	
11	0	0	0	0	0	507	519	507	31	0	
12	0	0	0	0	0	507	519	509	31	0	
13	0	0	0	0	0	506	514	506	31	0	
14	0	0	0	0	0	505	509	507	31	0	
15	0	0	0	0	0	504	508	511	31	0	
0	0	0	0	0	1	503	507	510	32	0	
1	0	0	0	0	0	500	509	509	31	0	
2	0	0	0	0	0	502	513	508	31	0	
3	0	0	0	0	0	501	513	510	31	0	
4	0	0	0	0	0	500	515	511	31	0	
5	0	0	0	0	0	499	514	514	31	0	
6	0	0	0	0	0	505	514	510	31	0	
7	0	0	0	0	0	513	513	509	31	0	
8	0	0	0	0	1	518	517	506	31	0	
9	0	0	0	0	0	515	515	505	31	0	
10	0	0	0	0	0	509	509	510	31	0	
11	0	0	0	0	0	504	509	512	31	0	
12	0	0	0	0	0	504	508	511	32	0	
13	0	0	0	0	0	503	504	510	31	0	
14	0	0	0	0	0	496	508	511	31	0	
15	0	0	0	0	0	489	512	513	31	0	
0	0	0	0	0	1	489	513	514	31	0	
1	0	0	0	0	0	503	513	509	31	0	
2	0	0	0	0	0	512	508	504	31	0	
3	0	0	0	0	0	519	506	505	32	0	
4	0	0	0	0	0	517	506	506	32	0	
5	0	0	0	0	0	509	514	510	32	0	
6	0	0	0	0	0	504	517	515	32	0	
7	0	0	0	0	0	505	519	512	31	0	
8	0	0	0	0	1	504	523	510	31	0	
9	0	0	0	0	0	504	523	512	31	0	
10	0	0	0	0	0	503	517	509	31	0	
11	0	0	0	0	0	507	512	507	31	0	
12	0	0	0	0	0	502	504	508	31	0	
13	0	0	0	0	0	501	510	508	31	0	
14	0	0	0	0	0	504	511	507	31	0	
15	0	0	0	0	0	506	512	508	31	0	
0	0	0	0	0	1	510	512	511	31	0	
1	0	0	0	0	0	510	513	511	31	0	
2	0	0	0	0	0	510	511	510	31	0	
3	0	0	0	0	0	508	508	511	32	0	
4	0	0	0	0	0	506	508	510	31	0	
5	0	0	0	0	0	505	514	509	31	0	
6	0	0	0	0	0	508	513	509	31	0	
7	0	0	0	0	0	503	509	510	31	0	
8	0	0	0	0	1	502	511	510	31	0	
9	0	0	0	0	0	501	513	509	31	0	
10	0	0	0	0	0	504	507	509	32	0	
11	0	0	0	0	0	504	509	508	31	0	
12	0	0	0	0	0	503	507	507	31	0	
13	0	0	0	0	0	505	505	505	31	0	
14	0	0	0	0	0	505	513	507	31	0	
15	0	0	0	0	0	506	522	509	31	0	
0	0	0	0	0	1	504	523	507	31	0	
1	0	0	0	0	0	499	522	513	31	0	
2	0	0	0	0	0	499	518	515	31	0	
3	0	0	0	0	0	502	512	512	31	0	
4	0	0	0	0	0	501	507	513	32	0	
5	0	0	0	0	0	499	505	512	31	0	
6	0	0	0	0	0	505	512	512	31	0	
7	0	0	0	0	0	508	512	507	31	0	
8	0	0	0	0	1	513	513	505	31	0	
9	0	0	0	0	0	512	514	505	31	0	
10	0	0	0	0	0	510	512	506	31	0	
11	0	0	0	0	0	509	503	507	31	0	
12	0	0	0	0	0	505	507	508	31	0	
13	0	0	0	0	0	508	510	508	31	0	
14	0	0	0	0	0	507	515	511	31	0	
15	0	0	0	0	0	506	518	511	31	0	
0	0	0	0	0	1	503	515	511	31	0	
1	0	0	0	0	0	500	514	510	31	0	
2	0	0	0	0	0	506	511	508	31	0	
3	0	0	0	0	0	508	510	508	31	0	
4	0	0	0	0	0	508	513	508	31	0	
5	0	0	0	0	0	506	516	510	31	0	
6	0	0	0	0	0	504	519	510	31	0	
7	0	0	0	0	0	504	518	510	31	0	
8	0	0	0	0	1	503	515	510	31	0	
9	0	0	0	0	0	502	507	511	31	0	
10	0	0	0	0	0	502	506	508	31	0	
11	0	0	0	0	0	505	505	507	31	0	
12	0	0	0	0	0	504	502	510	31	0	
13	0	0	0	0	0	504	504	511	32	0	
14	0	0	0	0	0	502	508	513	31	0	
15	0	0	0	0	0	498	514	514	31	0	
0	0	0	0	0	1	498	516	512	31	0	
1	0	0	0	0	0	507	515	505	31	0	
2	0	0	0	0	0	514	513	504	31	0	
3	0	0	0	0	0	513	513	505	31	0	
4	0	0	0	0	0	510	512	508	31	0	
5	0	0	0	0	0	504	516	510	31	0	
6	0	0	0	0	0	503	515	510	31	0	
7	0	0	0	0	0	502	514	510	31	0	
8	0	0	0	0	1	506	511	508	32	0	
9	0	0	0	0	0	509	510	508	31	0	
10	0	0	0	0	0	507	514	508	31	0	
11	0	0	0	0	0	507	518	509	31	0	
12	0	0	0	0	0	506	511	509	31	0	
13	0	0	0	0	0	507	512	510	31	0	
14	0	0	0	0	0	504	510	512	31	0	
15	0	0	0	0	0	504	509	510	32	0	
0	0	0	0	0	1	502	510	511	31	0	
1	0	0	0	0	0	502	512	509	31	0	
2	0	0	0	0	0	500	514	511	31	0	
3	0	0	0	0	0	503	513	511	31	0	
4	0	0	0	0	0	503	511	510	31	0	
5	0	0	0	0	0	504	509	509	31	0	
6	0	0	0	0	0	502	509	509	31	0	
7	0	0	0	0	0	504	511	509	31	0	
8	0	0	0	0	1	506	513	510	31	0	
9	0	0	0	0	0	506	512	508	31	0	
10	0	0	0	0	0	508	509	508	31	0	
11	0	0	0	0	0	507	511	508	31	0	
12	0	0	0	0	0	499	515	511	31	0	
13	0	0	0	0	0	499	516	511	31	0	
14	0	0	0	0	0	510	511	507	31	0	
15	0	0	0	0	0	510	513	505	31	0	
0	0	0	0	0	1	507	510	505	31	0	
1	0	0	0	0	0	503	503	508	32	0	
2	0	0	0	0	0	503	513	511	32	0	
3	0	0	0	0	0	508	517	509	31	0	
4	0	0	0	0	0	505	520	510	31	0	
5	0	0	0	0	0	504	518	510	31	0	
6	0	0	0	0	0	508	504	508	32	0	
7	0	0	0	0	0	512	502	507	32	0	
8	0	0	0	0	1	511	511	509	31	0	
9	0	0	0	0	0	506	520	511	31	0	
10	0	0	0	0	0	502	523	514	31	0	
11	0	0	0	0	0	508	518	511	31	0	
12	0	0	0	0	0	511	513	510	31	0	
13	0	0	0	0	0	508	504	509	31	0	
14	0	0	0	0	0	505	508	508	31	0	
15	0	0	0	0	0	502	512	508	31	0	
0	0	0	0	0	1	505	513	505	31	0	
1	0	0	0	0	0	504	511	508	31	0	
2	0	0	0	0	0	502	509	508	31	0	
3	0	0	0	0	0	504	511	508	31	0	
4	0	0	0	0	0	505	514	508	31	0	
5	0	0	0	0	0	505	514	507	31	0	
6	0	0	0	0	0	504	512	510	31	0	
7	0	0	0	0	0	504	513	512	31	0	
8	0	0	0	0	1	503	513	510	31	0	
9	0	0	0	0	0	502	510	509	31	0	
10	0	0	0	0	0	503	510	510	32	0	
11	0	0	0	0	0	503	505	510	32	0	
12	0	0	0	0	0	502	508	509	31	0	
13	0	0	0	0	0	503	511	510	31	0	
14	0	0	0	0	0	505	515	510	31	0	
15	0	0	0	0	0	504	517	507	31	0	
0	0	0	0	0	1	503	513	512	31	0	
1	0	0	0	0	0	502	511	509	31	0	
2	0	0	0	0	0	507	510	508	31	0	
3	0	0	0	0	0	511	508	508	31	0	
4	0	0	0	0	0	509	508	511	32	0	
5	0	0	0	0	0	507	509	510	32	0	
6	0	0	0	0	0	504	517	511	32	0	
7	0	0	0	0	0	504	516	508	31	0	
8	0	0	0	0	0	504	513	509	31	0	
9	0	0	0	0	0	508	511	508	31	0	
10	0	0	0	0	0	506	512	509	31	0	
11	0	0	0	0	0	505	511	510	31	0	
12	0	0	0	0	0	503	514	509	31	0	
13	0	0	0	0	0	499	516	510	31	0	
14	0	0	0	0	0	500	513	511	31	0	
15	0	0	0	0	0	504	514	510	31	0	
0	0	0	0	0	0	507	513	508	31	0	
1	0	0	0	0	0	506	515	509	31	0	
2	0	0	0	0	0	512	514	506	31	0	
3	0	0	0	0	0	515	507	507	31	0	
4	0	0	0	0	0	512	507	507	31	0	
5	0	0	0	0	0	510	508	507	31	0	
6	0	0	0	0	0	507	512	508	31	0	
7	0	0	0	0	0	505	514	508	32	0	
8	0	0	0	0	0	506	515	511	31	0	
9	0	0	0	0	0	504	512	509	31	0	
10	0	0	0	0	0	504	515	512	31	0	
11	0	0	0	0	0	504	512	512	31	0	
12	0	0	0	0	0	504	511	509	31	0	
13	0	0	0	0	0	502	510	510	31	0	
14	0	0	0	0	0	501	509	509	31	0	
15	0	0	0	0	0	504	511	509	31	0	
0	0	0	0	0	1	501	512	509	31	0	
1	0	0	0	0	0	503	505	511	31	0	
2	0	0	0	0	0	502	506	510	31	0	
3	0	0	0	0	0	503	506	507	32	0	
4	0	0	0	0	0	503	510	508	31	0	
5	0	0	0	0	0	506	520	510	31	0	
6	0	0	0	0	0	504	519	508	31	0	
7	0	0	0	0	0	504	515	508	31	0	
8	0	0	0	0	1	502	512	509	31	0	
9	0	0	0	0	0	504	508	510	31	0	
10	0	0	0	0	0	506	511	509	31	0	
11	0	0	0	0	0	508	515	509	31	0	
12	0	0	0	0	0	507	517	509	31	0	
13	0	0	0	0	0	507	514	510	31	0	
14	0	0	0	0	0	505	511	512	31	0	
15	0	0	0	0	0	507	509	511	31	0	
0	0	0	0	0	1	507	511	508	31	0	
1	0	0	0	0	0	505	508	509	31	0	
2	0	0	0	0	0	504	506	508	31	0	
3	0	0	0	0	0	504	511	508	31	0	
4	0	0	0	0	0	506	516	508	31	0	
5	0	0	0	0	0	504	516	510	31	0	
6	0	0	0	0	0	508	519	509	31	0	
7	0	0	0	0	0	508	520	508	31	0	
8	0	0	0	0	1	503	515	508	31	0	
9	0	0	0	0	0	501	510	511	31	0	
10	0	0	0	0	0	500	508	510	31	0	
11	0	0	0	0	0	503	512	510	31	0	
12	0	0	0	0	0	511	512	508	31	0	
13	0	0	0	0	0	508	508	508	31	0	
14	0	0	0	0	0	505	511	510	31	0	
15	0	0	0	0	0	504	508	509	32	0	
0	0	0	0	0	1	502	508	510	31	0	
1	0	0	0	0	0	503	513	510	31	0	
2	0	0	0	0	0	508	519	507	31	0	
3	0	0	0	0	0	507	527	504	31	0	
4	0	0	0	0	0	506	523	507	31	0	
5	0	0	0	0	0	499	510	509	31	0	
6	0	0	0	0	0	502	508	511	31	0	
7	0	0	0	0	0	504	504	511	31	0	
8	0	0	0	0	1	504	496	511	32	0	
9	0	0	0	0	0	504	491	510	32	0	
10	0	0	0	0	0	508	500	510	32	0	
11	0	0	0	0	0	508	513	510	31	0	
12	0	0	0	0	0	504	527	512	31	0	
13	0	0	0	0	0	505	519	509	31	0	
14	0	0	0	0	0	510	518	507	31	0	
15	0	0	0	0	0	512	514	507	31	0	
0	0	0	0	0	1	509	505	508	32	0	
1	0	0	0	0	0	510	497	508	32	0	
2	0	0	0	0	0	508	502	510	31	0	
3	0	0	0	0	0	505	524	508	31	0	
4	0	0	0	0	0	501	538	510	31	0	
5	0	0	0	0	0	500	534	510	31	0	
6	0	0	0	0	0	504	524	508	31	0	
7	0	0	0	0	0	504	510	510	31	0	
8	0	0	0	0	1	504	505	511	31	0	
9	0	0	0	0	0	504	504	511	32	0	
10	0	0	0	0	0	499	505	513	32	0	
11	0	0	0	0	0	499	508	512	31	0	
12	0	0	0	0	0	503	505	510	31	0	
13	0	0	0	0	0	505	508	508	31	0	
14	0	0	0	0	0	508	508	510	31	0	
15	0	0	0	0	0	505	510	509	31	0	
0	0	0	0	0	1	508	508	506	31	0	
1	0	0	0	0	0	508	508	506	31	0	
2	0	0	0	0	0	503	514	509	31	0	
3	0	0	0	0	0	504	517	511	31	0	
4	0	0	0	0	0	504	517	509	31	0	
5	0	0	0	0	0	505	521	509	31	0	
6	0	0	0	0	0	503	524	506	31	0	
7	0	0	0	0	0	504	513	507	31	0	
8	0	0	0	0	1	510	511	504	31	0	
9	0	0	0	0	0	511	507	507	31	0	
10	0	0	0	0	0	511	505	508	32	0	
11	0	0	0	0	0	508	504	511	31	0	
12	0	0	0	0	0	505	505	512	31	0	
13	0	0	0	0	0	503	507	512	31	0	
14	0	0	0	0	0	504	511	512	31	0	
15	0	0	0	0	0	505	512	512	31	0	
0	0	0	0	0	1	500	511	512	31	0	
1	0	0	0	0	0	498	502	508	31	0	
2	0	0	0	0	0	502	504	508	31	0	
3	0	0	0	0	0	502	513	508	32	0	
4	0	0	0	0	0	510	515	505	31	0	
5	0	0	0	0	0	511	520	509	31	0	
6	0	0	0	0	0	511	529	508	31	0	
7	0	0	0	0	0	508	534	513	31	0	
8	0	0	0	0	1	505	529	513	31	0	
9	0	0	0	0	0	504	518	510	31	0	
10	0	0	0	0	0	503	506	512	31	0	
11	0	0	0	0	0	506	506	508	31	0	
12	0	0	0	0	0	505	509	510	31	0	
13	0	0	0	0	0	507	512	508	31	0	
14	0	0	0	0	0	506	507	505	31	0	
15	0	0	0	0	0	506	503	508	32	0	
0	0	0	0	0	1	504	503	511	32	0	
1	0	0	0	0	0	498	501	510	32	0	
2	0	0	0	0	0	499	504	511	31	0	
3	0	0	0	0	0	499	508	511	31	0	
4	0	0	0	0	0	500	513	511	31	0	
5	0	0	0	0	0	504	521	510	31	0	
6	0	0	0	0	0	510	528	509	31	0	
7	0	0	0	0	0	512	524	507	31	0	
8	0	0	0	0	1	509	526	507	31	0	
9	0	0	0	0	0	508	523	508	31	0	
10	0	0	0	0	0	504	513	507	31	0	
11	0	0	0	0	0	503	506	508	31	0	
12	0	0	0	0	0	504	503	510	31	0	
13	0	0	0	0	0	504	505	513	31	0	
14	0	0	0	0	0	505	505	511	31	0	
15	0	0	0	0	0	508	501	510	32	0	
0	0	0	0	0	1	506	500	510	32	0	
1	0	0	0	0	0	505	501	508	31	0	
2	0	0	0	0	0	504	509	508	31	0	
3	0	0	0	0	0	509	509	507	31	0	
4	0	0	0	0	0	510	508	508	31	0	
5	0	0	0	0	0	507	509	511	31	0	
6	0	0	0	0	0	504	518	511	31	0	
7	0	0	0	0	0	507	516	508	31	0	
8	0	0	0	0	1	502	523	510	31	0	
9	0	0	0	0	0	499	528	514	31	0	
10	0	0	0	0	0	498	531	512	31	0	
11	0	0	0	0	0	504	528	510	31	0	
12	0	0	0	0	0	501	521	512	31	0	
13	0	0	0	0	0	502	511	510	31	0	
14	0	0	0	0	0	501	503	513	32	0	
15	0	0	0	0	0	501	500	509	32	0	
0	0	0	0	0	1	503	497	511	32	0	
1	0	0	0	0	0	504	502	509	32	0	
2	0	0	0	0	0	508	511	508	31	0	
3	0	0	0	0	0	510	518	506	31	0	
4	0	0	0	0	0	512	524	507	31	0	
5	0	0	0	0	0	509	528	507	31	0	
6	0	0	0	0	0	508	524	505	31	0	
7	0	0	0	0	0	507	512	505	31	0	
8	0	0	0	0	1	505	501	506	31	0	
9	0	0	0	0	0	504	501	508	32	0	
10	0	0	0	0	0	502	500	510	32	0	
11	0	0	0	0	0	499	503	512	32	0	
12	0	0	0	0	0	501	504	511	32	0	
13	0	0	0	0	0	504	504	511	32	0	
14	0	0	0	0	0	507	509	508	31	0	
15	0	0	0	0	0	507	512	510	31	0	
0	0	0	0	0	1	510	508	505	31	0	
1	0	0	0	0	0	511	505	507	31	0	
2	0	0	0	0	0	506	508	505	31	0	
3	0	0	0	0	0	507	511	506	31	0	
4	0	0	0	0	0	508	509	506	31	0	
5	0	0	0	0	0	505	510	508	31	0	
6	0	0	0	0	0	504	520	512	31	0	
7	0	0	0	0	0	500	528	509	31	0	
8	0	0	0	0	1	500	529	506	31	0	
9	0	0	0	0	0	501	521	507	31	0	
10	0	0	0	0	0	503	514	505	31	0	
11	0	0	0	0	0	499	509	510	31	0	
12	0	0	0	0	0	500	512	515	31	0	
13	0	0	0	0	0	503	510	515	31	0	
14	0	0	0	0	0	507	505	513	31	0	
15	0	0	0	0	0	508	507	513	31	0	
0	0	0	0	0	1	510	505	513	32	0	
1	0	0	0	0	0	510	508	509	31	0	
2	0	0	0	0	0	508	512	511	31	0	
3	0	0	0	0	0	505	523	508	31	0	
4	0	0	0	0	0	506	527	507	31	0	
5	0	0	0	0	0	507	515	508	31	0	
6	0	0	0	0	0	506	504	506	31	0	
7	0	0	0	0	0	501	497	509	31	0	
8	0	0	0	0	1	502	503	511	31	0	
9	0	0	0	0	0	504	514	509	31	0	
10	0	0	0	0	0	506	519	508	31	0	
11	0	0	0	0	0	504	519	509	31	0	
12	0	0	0	0	0	506	516	507	31	0	
13	0	0	0	0	0	502	512	509	31	0	
14	0	0	0	0	0	500	508	511	31	0	
15	0	0	0	0	0	501	508	512	32	0	
0	0	0	0	0	1	502	506	513	32	0	
1	0	0	0	0	0	505	504	513	32	0	
2	0	0	0	0	0	505	504	514	32	0	
3	0	0	0	0	0	509	510	512	32	0	
4	0	0	0	0	0	514	513	508	31	0	
5	0	0	0	0	0	513	515	505	31	0	
6	0	0	0	0	0	512	516	505	31	0	
7	0	0	0	0	0	510	519	509	31	0	
8	0	0	0	0	1	503	520	508	31	0	
9	0	0	0	0	0	505	515	509	31	0	
10	0	0	0	0	0	503	512	508	31	0	
11	0	0	0	0	0	505	507	509	31	0	
12	0	0	0	0	0	504	505	510	31	0	
13	0	0	0	0	0	502	505	510	31	0	
14	0	0	0	0	0	500	512	511	31	0	
15	0	0	0	0	0	499	509	511	31	0	
0	0	0	0	0	0	500	510	509	31	0	
1	0	0	0	0	0	503	511	507	31	0	
2	0	0	0	0	0	504	508	508	31	0	
3	0	0	0	0	0	501	511	509	31	0	
4	0	0	0	0	0	500	515	511	31	0	
5	0	0	0	0	0	498	526	512	32	0	
6	0	0	0	0	0	504	520	511	32	0	
7	0	0	0	0	0	508	515	508	31	0	
8	0	0	0	0	0	511	512	508	31	0	
9	0	0	0	0	0	508	513	508	31	0	
10	0	0	0	0	0	512	517	505	31	0	
11	0	0	0	0	0	512	515	506	31	0	
12	0	0	0	0	0	512	514	507	31	0	
13	0	0	0	0	0	511	507	508	31	0	
14	0	0	0	0	0	508	503	509	31	0	
15	0	0	0	0	0	505	503	508	31	0	
0	0	0	0	0	0	501	506	511	32	0	
1	0	0	0	0	0	501	505	511	32	0	
2	0	0	0	0	0	500	506	509	31	0	
3	0	0	0	0	0	497	510	511	31	0	
4	0	0	0	0	0	497	515	510	31	0	
5	0	0	0	0	0	500	517	511	31	0	
6	0	0	0	0	0	506	521	508	31	0	
7	0	0	0	0	0	508	520	508	31	0	
8	0	0	0	0	1	509	514	510	31	0	
9	0	0	0	0	0	508	502	509	31	0	
10	0	0	0	0	0	508	504	508	31	0	
11	0	0	0	0	0	508	509	508	31	0	
12	0	0	0	0	0	508	515	509	31	0	
13	0	0	0	0	0	500	524	511	31	0	
14	0	0	0	0	0	500	532	510	31	0	
15	0	0	0	0	0	503	526	510	31	0	
0	0	0	0	0	1	505	506	509	31	0	
1	0	0	0	0	0	505	497	507	31	0	
2	0	0	0	0	0	505	499	507	31	0	
3	0	0	0	0	0	506	500	509	31	0	
4	0	0	0	0	0	508	502	508	31	0	
5	0	0	0	0	0	507	509	509	31	0	
6	0	0	0	0	0	508	523	508	31	0	
7	0	0	0	0	0	509	524	508	31	0	
8	0	0	0	0	1	505	521	508	31	0	
9	0	0	0	0	0	504	515	511	31	0	
10	0	0	0	0	0	505	515	509	31	0	
11	0	0	0	0	0	504	504	512	31	0	
12	0	0	0	0	0	503	495	512	32	0	
13	0	0	0	0	0	500	493	514	32	0	
14	0	0	0	0	0	499	502	512	32	0	
15	0	0	0	0	0	502	511	512	32	0	
0	0	0	0	0	1	504	522	510	31	0	
1	0	0	0	0	0	505	528	509	31	0	
2	0	0	0	0	0	506	531	510	31	0	
3	0	0	0	0	0	507	531	508	31	0	
4	0	0	0	0	0	504	520	509	31	0	
5	0	0	0	0	0	504	504	511	31	0	
6	0	0	0	0	0	503	498	511	32	0	
7	0	0	0	0	0	505	498	509	31	0	
8	0	0	0	0	1	505	505	511	31	0	
9	0	0	0	0	0	507	510	511	31	0	
10	0	0	0	0	0	511	513	508	31	0	
11	0	0	0	0	0	510	515	506	31	0	
12	0	0	0	0	0	507	511	505	31	0	
13	0	0	0	0	0	504	508	508	31	0	
14	0	0	0	0	0	504	505	509	31	0	
15	0	0	0	0	0	506	506	510	32	0	
0	0	0	0	0	1	506	510	508	31	0	
1	0	0	0	0	0	503	509	509	32	0	
2	0	0	0	0	0	499	508	512	31	0	
3	0	0	0	0	0	500	512	512	31	0	
4	0	0	0	0	0	497	515	513	31	0	
5	0	0	0	0	0	502	525	513	32	0	
6	0	0	0	0	0	505	538	506	31	0	
7	0	0	0	0	0	507	548	504	31	0	
8	0	0	0	0	1	508	526	504	31	0	
9	0	0	0	0	0	509	504	504	31	0	
10	0	0	0	0	0	505	499	508	31	0	
11	0	0	0	0	0	503	499	511	31	0	
12	0	0	0	0	0	507	497	510	32	0	
13	0	0	0	0	0	513	499	503	31	0	
14	0	0	0	0	0	510	503	506	31	0	
15	0	0	0	0	0	507	504	508	31	0	
0	0	0	0	0	1	505	505	511	32	0	
1	0	0	0	0	0	500	510	511	31	0	
2	0	0	0	0	0	498	512	512	31	0	
3	0	0	0	0	0	498	518	513	31	0	
4	0	0	0	0	0	504	517	512	31	0	
5	0	0	0	0	0	504	510	510	32	0	
6	0	0	0	0	0	504	508	511	32	0	
7	0	0	0	0	0	506	507	509	31	0	
8	0	0	0	0	1	507	508	510	31	0	
9	0	0	0	0	0	507	511	509	31	0	
10	0	0	0	0	0	508	519	508	31	0	
11	0	0	0	0	0	509	525	505	31	0	
12	0	0	0	0	0	505	524	505	31	0	
13	0	0	0	0	0	498	522	511	31	0	
14	0	0	0	0	0	501	512	509	31	0	
15	0	0	0	0	0	503	509	508	31	0	
0	0	0	0	0	1	511	506	508	32	0	
1	0	0	0	0	0	511	510	510	31	0	
2	0	0	0	0	0	505	515	509	31	0	
3	0	0	0	0	0	503	513	510	31	0	
4	0	0	0	0	0	504	513	511	31	0	
5	0	0	0	0	0	505	511	507	31	0	
6	0	0	0	0	0	509	511	508	31	0	
7	0	0	0	0	0	506	510	510	31	0	
8	0	0	0	0	1	505	512	511	31	0	
9	0	0	0	0	0	505	510	510	31	0	
10	0	0	0	0	0	505	512	509	31	0	
11	0	0	0	0	0	504	513	509	32	0	
12	0	0	0	0	0	505	511	509	32	0	
13	0	0	0	0	0	505	511	511	31	0	
14	0	0	0	0	0	504	510	510	31	0	
15	0	0	0	0	0	504	510	512	32	0	
0	0	0	0	0	1	508	509	509	32	0	
1	0	0	0	0	0	508	512	507	31	0	
2	0	0	0	0	0	504	514	510	31	0	
3	0	0	0	0	0	497	515	510	31	0	
4	0	0	0	0	0	498	513	515	32	0	
5	0	0	0	0	0	503	513	512	31	0	
6	0	0	0	0	0	504	513	510	31	0	
7	0	0	0	0	0	507	512	510	31	0	
8	0	0	0	0	1	506	512	508	31	0	
9	0	0	0	0	0	505	510	509	31	0	
10	0	0	0	0	0	508	510	507	32	0	
11	0	0	0	0	0	507	513	508	32	0	
12	0	0	0	0	0	508	515	510	31	0	
13	0	0	0	0	0	511	514	507	31	0	
14	0	0	0	0	0	507	514	507	31	0	
15	0	0	0	0	0	505	509	509	31	0	
0	0	0	0	0	1	505	512	507	31	0	
1	0	0	0	0	0	508	511	504	31	0	
2	0	0	0	0	0	504	510	503	31	0	
3	0	0	0	0	0	500	510	507	31	0	
4	0	0	0	0	0	498	508	510	31	0	
5	0	0	0	0	0	500	504	512	31	0	
6	0	0	0	0	0	497	510	515	32	0	
7	0	0	0	0	0	501	513	515	31	0	
8	0	0	0	0	1	504	517	513	31	0	
9	0	0	0	0	0	505	518	508	31	0	
10	0	0	0	0	0	513	516	506	32	0	
11	0	0	0	0	0	511	515	508	31	0	
12	0	0	0	0	0	508	514	506	31	0	
13	0	0	0	0	0	505	514	507	31	0	
14	0	0	0	0	0	506	512	508	31	0	
15	0	0	0	0	0	501	511	508	31	0	
0	0	0	0	0	1	500	508	509	31	0	
1	0	0	0	0	0	507	511	510	31	0	
2	0	0	0	0	0	508	510	509	32	0	
3	0	0	0	0	0	505	512	512	31	0	
4	0	0	0	0	0	507	512	512	31	0	
5	0	0	0	0	0	507	510	512	31	0	
6	0	0	0	0	0	507	509	513	32	0	
7	0	0	0	0	0	508	510	508	32	0	
8	0	0	0	0	1	509	509	508	32	0	
9	0	0	0	0	0	507	512	510	31	0	
10	0	0	0	0	0	508	515	508	31	0	
11	0	0	0	0	0	502	515	510	31	0	
12	0	0	0	0	0	499	516	511	31	0	
13	0	0	0	0	0	499	513	508	31	0	
14	0	0	0	0	0	503	513	511	31	0	
15	0	0	0	0	0	503	512	510	31	0	
0	0	0	0	0	1	506	512	508	32	0	
1	0	0	0	0	0	509	515	510	32	0	
2	0	0	0	0	0	508	519	509	31	0	
3	0	0	0	0	0	509	519	505	31	0	
4	0	0	0	0	0	507	516	506	31	0	
5	0	0	0	0	0	505	514	508	31	0	
6	0	0	0	0	0	504	508	512	31	0	
7	0	0	0	0	0	509	508	505	31	0	
8	0	0	0	0	1	507	508	505	32	0	
9	0	0	0	0	0	504	509	507	32	0	
10	0	0	0	0	0	501	508	510	31	0	
11	0	0	0	0	0	499	508	513	31	0	
12	0	0	0	0	0	501	512	515	32	0	
13	0	0	0	0	0	502	518	513	31	0	
14	0	0	0	0	0	506	518	512	31	0	
15	0	0	0	0	0	511	513	508	31	0	
0	0	0	0	0	1	508	511	505	31	0	
1	0	0	0	0	0	506	507	504	31	0	
2	0	0	0	0	0	504	505	507	32	0	
3	0	0	0	0	0	505	510	508	31	0	
4	0	0	0	0	0	506	514	511	31	0	
5	0	0	0	0	0	507	513	509	32	0	
6	0	0	0	0	0	507	516	512	31	0	
7	0	0	0	0	0	507	518	511	31	0	
8	0	0	0	0	1	505	518	509	31	0	
9	0	0	0	0	0	507	509	506	32	0	
10	0	0	0	0	0	507	509	504	31	0	
11	0	0	0	0	0	507	513	507	31	0	
12	0	0	0	0	0	507	510	510	31	0	
13	0	0	0	0	0	508	512	510	31	0	
14	0	0	0	0	0	506	515	509	31	0	
15	0	0	0	0	0	503	515	510	31	0	
0	0	0	0	0	1	504	513	509	31	0	
1	0	0	0	0	0	505	510	510	31	0	
2	0	0	0	0	0	507	512	509	31	0	
3	0	0	0	0	0	506	513	507	31	0	
4	0	0	0	0	0	506	520	508	31	0	
5	0	0	0	0	0	504	519	510	31	0	
6	0	0	0	0	0	504	517	511	31	0	
7	0	0	0	0	0	506	515	508	31	0	
8	0	0	0	0	1	504	504	510	31	0	
9	0	0	0	0	0	510	499	504	32	0	
10	0	0	0	0	0	507	499	504	32	0	
11	0	0	0	0	0	499	505	511	32	0	
12	0	0	0	0	0	497	513	510	31	0	
13	0	0	0	0	0	501	512	512	31	0	
14	0	0	0	0	0	500	505	516	32	0	
15	0	0	0	0	0	501	507	515	32	0	
0	0	0	0	0	1	502	514	511	31	0	
1	0	0	0	0	0	506	519	512	31	0	
2	0	0	0	0	0	505	522	508	31	0	
3	0	0	0	0	0	505	521	512	31	0	
4	0	0	0	0	0	505	514	508	31	0	
5	0	0	0	0	0	506	508	505	32	0	
6	0	0	0	0	0	506	505	507	32	0	
7	0	0	0	0	0	507	513	509	32	0	
8	0	0	0	0	0	505	517	511	31	0	
9	0	0	0	0	0	508	515	510	31	0	
10	0	0	0	0	0	505	515	510	31	0	
11	0	0	0	0	0	505	512	508	32	0	
12	0	0	0	0	0	504	513	509	31	0	
13	0	0	0	0	0	504	514	508	31	0	
14	0	0	0	0	0	504	513	504	31	0	
15	0	0	0	0	0	502	508	510	31	0	
0	0	0	0	0	0	497	509	515	32	0	
1	0	0	0	0	0	507	513	514	32	0	
2	0	0	0	0	0	511	513	510	31	0	
3	0	0	0	0	0	512	510	508	31	0	
4	0	0	0	0	0	516	507	502	32	0	
5	0	0	0	0	0	508	505	507	32	0	
6	0	0	0	0	0	498	510	513	32	0	
7	0	0	0	0	0	502	512	513	32	0	
8	0	0	0	0	0	505	508	510	32	0	
9	0	0	0	0	0	505	515	510	31	0	
10	0	0	0	0	0	505	520	510	31	0	
11	0	0	0	0	0	508	520	505	31	0	
12	0	0	0	0	0	508	518	505	31	0	
13	0	0	0	0	0	508	508	507	31	0	
14	0	0	0	0	0	508	509	504	31	0	
15	0	0	0	0	0	504	509	503	31	0	
0	0	0	0	0	1	496	509	515	31	0	
1	0	0	0	0	0	492	506	519	32	0	
2	0	0	0	0	0	498	509	513	32	0	
3	0	0	0	0	0	505	516	510	31	0	
4	0	0	0	0	0	509	514	506	31	0	
5	0	0	0	0	0	508	505	508	32	0	
6	0	0	0	0	0	510	507	507	32	0	
7	0	0	0	0	0	510	508	504	31	0	
8	0	0	0	0	1	503	512	510	31	0	
9	0	0	0	0	0	496	517	513	31	0	
10	0	0	0	0	0	498	519	512	31	0	
11	0	0	0	0	0	504	517	507	31	0	
12	0	0	0	0	0	508	514	503	31	0	
13	0	0	0	0	0	509	513	508	32	0	
14	0	0	0	0	0	505	515	511	31	0	
15	0	0	0	0	0	505	515	509	31	0	
0	0	0	0	0	1	503	509	509	32	0	
1	0	0	0	0	0	504	511	509	32	0	
2	0	0	0	0	0	509	512	512	32	0	
3	0	0	0	0	0	507	513	510	31	0	
4	0	0	0	0	0	510	515	505	31	0	
5	0	0	0	0	0	507	513	506	31	0	
6	0	0	0	0	0	501	505	512	31	0	
7	0	0	0	0	0	498	505	511	32	0	
8	0	0	0	0	1	501	507	510	32	0	
9	0	0	0	0	0	504	504	512	31	0	
10	0	0	0	0	0	506	507	511	31	0	
11	0	0	0	0	0	508	510	509	32	0	
12	0	0	0	0	0	510	513	508	31	0	
13	0	0	0	0	0	512	517	503	31	0	
14	0	0	0	0	0	512	517	503	31	0	
15	0	0	0	0	0	508	517	507	31	0	
0	0	0	0	0	1	504	517	508	31	0	
1	0	0	0	0	0	499	516	512	31	0	
2	0	0	0	0	0	497	516	512	31	0	
3	0	0	0	0	0	498	512	511	31	0	
4	0	0	0	0	0	504	510	511	31	0	
5	0	0	0	0	0	507	512	508	31	0	
6	0	0	0	0	0	505	510	505	31	0	
7	0	0	0	0	0	504	508	507	31	0	
8	0	0	0	0	1	505	509	511	31	0	
9	0	0	0	0	0	505	511	511	31	0	
10	0	0	0	0	0	505	511	513	31	0	
11	0	0	0	0	0	504	509	514	32	0	
12	0	0	0	0	0	504	508	511	32	0	
13	0	0	0	0	0	505	511	510	32	0	
14	0	0	0	0	0	504	516	508	31	0	
15	0	0	0	0	0	508	513	508	31	0	
0	0	0	0	0	1	508	511	507	31	0	
1	0	0	0	0	0	508	514	507	32	0	
2	0	0	0	0	0	505	513	508	32	0	
3	0	0	0	0	0	505	518	507	31	0	
4	0	0	0	0	0	505	516	507	31	0	
5	0	0	0	0	0	506	512	507	31	0	
6	0	0	0	0	0	507	514	507	31	0	
7	0	0	0	0	0	512	513	505	31	0	
8	0	0	0	0	1	510	511	506	31	0	
9	0	0	0	0	0	505	510	510	31	0	
10	0	0	0	0	0	500	511	512	31	0	
11	0	0	0	0	0	501	513	512	31	0	
12	0	0	0	0	0	502	514	511	31	0	
13	0	0	0	0	0	503	512	509	31	0	
14	0	0	0	0	0	505	512	510	31	0	
15	0	0	0	0	0	510	515	509	31	0	
0	0	0	0	0	1	507	512	508	31	0	
1	0	0	0	0	0	505	512	510	31	0	
2	0	0	0	0	0	504	512	507	31	0	
3	0	0	0	0	0	504	511	509	31	0	
4	0	0	0	0	0	504	512	512	31	0	
5	0	0	0	0	0	502	512	512	31	0	
6	0	0	0	0	0	503	510	512	32	0	
7	0	0	0	0	0	503	510	511	32	0	
8	0	0	0	0	1	508	512	508	31	0	
9	0	0	0	0	0	507	514	510	31	0	
10	0	0	0	0	0	505	515	510	31	0	
11	0	0	0	0	0	507	510	508	32	0	
12	0	0	0	0	0	507	503	509	32	0	
13	0	0	0	0	0	506	508	510	32	0	
14	0	0	0	0	0	503	510	511	31	0	
15	0	0	0	0	0	504	512	510	31	0	
0	0	0	0	0	1	503	511	508	31	0	
1	0	0	0	0	0	508	515	507	31	0	
2	0	0	0	0	0	504	514	508	31	0	
3	0	0	0	0	0	508	516	509	31	0	
4	0	0	0	0	0	506	518	509	31	0	
5	0	0	0	0	0	506	516	507	31	0	
6	0	0	0	0	0	508	514	510	31	0	
7	0	0	0	0	0	508	511	508	31	0	
8	0	0	0	0	1	508	510	507	31	0	
9	0	0	0	0	0	508	512	505	31	0	
10	0	0	0	0	0	504	513	508	31	0	
11	0	0	0	0	0	503	511	513	31	0	
12	0	0	0	0	0	504	513	513	31	0	
13	0	0	0	0	0	505	512	512	31	0	
14	0	0	0	0	0	506	513	512	31	0	
15	0	0	0	0	0	505	510	512	31	0	
0	0	0	0	0	1	503	509	511	31	0	
1	0	0	0	0	0	503	513	512	31	0	
2	0	0	0	0	0	503	517	509	31	0	
3	0	0	0	0	0	505	512	510	31	0	
4	0	0	0	0	0	505	511	508	32	0	
5	0	0	0	0	0	507	513	508	31	0	
6	0	0	0	0	0	507	514	508	31	0	
7	0	0	0	0	0	507	513	508	31	0	
8	0	0	0	0	1	506	512	509	31	0	
9	0	0	0	0	0	504	512	509	31	0	
10	0	0	0	0	0	502	510	509	32	0	
11	0	0	0	0	0	503	509	509	31	0	
12	0	0	0	0	0	505	511	507	31	0	
13	0	0	0	0	0	505	510	508	31	0	
14	0	0	0	0	0	506	511	507	31	0	
15	0	0	0	0	0	507	511	508	31	0	
0	0	0	0	0	1	507	510	509	31	0	
1	0	0	0	0	0	505	508	511	31	0	
2	0	0	0	0	0	503	511	512	32	0	
3	0	0	0	0	0	504	511	510	31	0	
4	0	0	0	0	0	502	510	510	31	0	
5	0	0	0	0	0	504	512	510	31	0	
6	0	0	0	0	0	501	513	510	31	0	
7	0	0	0	0	0	503	512	507	31	0	
8	0	0	0	0	1	504	512	508	31	0	
9	0	0	0	0	0	504	510	508	31	0	
10	0	0	0	0	0	504	511	510	31	0	
11	0	0	0	0	0	506	511	509	31	0	
12	0	0	0	0	0	507	511	510	32	0	
13	0	0	0	0	0	507	511	510	32	0	
14	0	0	0	0	0	507	511	508	31	0	
15	0	0	0	0	0	504	511	509	31	0	
0	0	0	0	0	1	504	511	511	31	0	
1	0	0	0	0	0	504	513	508	31	0	
2	0	0	0	0	0	504	510	506	31	0	
3	0	0	0	0	0	504	512	509	31	0	
4	0	0	0	0	0	503	511	511	31	0	
5	0	0	0	0	0	504	513	508	31	0	
6	0	0	0	0	0	505	514	508	31	0	
7	0	0	0	0	0	506	511	509	31	0	
8	0	0	0	0	1	508	512	510	31	0	
9	0	0	0	0	0	507	511	508	31	0	
10	0	0	0	0	0	508	511	508	31	0	
11	0	0	0	0	0	509	512	509	31	0	
12	0	0	0	0	0	506	511	510	31	0	
13	0	0	0	0	0	504	511	509	31	0	
14	0	0	0	0	0	504	513	511	31	0	
15	0	0	0	0	0	507	513	510	31	0	
0	0	0	0	0	1	505	512	510	32	0	
1	0	0	0	0	0	504	511	511	31	0	
2	0	0	0	0	0	503	511	511	32	0	
3	0	0	0	0	0	504	513	509	31	0	
4	0	0	0	0	0	505	511	509	31	0	
5	0	0	0	0	0	503	512	511	31	0	
6	0	0	0	0	0	504	512	510	31	0	
7	0	0	0	0	0	506	513	508	31	0	
8	0	0	0	0	1	504	511	508	31	0	
9	0	0	0	0	0	505	510	508	32	0	
10	0	0	0	0	0	504	509	508	31	0	
11	0	0	0	0	0	505	512	508	31	0	
12	0	0	0	0	0	505	512	508	31	0	
13	0	0	0	0	0	503	511	510	31	0	
14	0	0	0	0	0	504	510	510	31	0	
15	0	0	0	0	0	502	510	511	31	0	
0	0	0	0	0	1	504	511	508	31	0	
1	0	0	0	0	0	502	514	509	31	0	
2	0	0	0	0	0	504	513	508	31	0	
3	0	0	0	0	0	505	514	509	31	0	
4	0	0	0	0	0	507	513	511	32	0	
5	0	0	0	0	0	506	511	510	31	0	
6	0	0	0	0	0	507	512	508	31	0	
7	0	0	0	0	0	506	511	507	31	0	
8	0	0	0	0	1	507	511	508	31	0	
9	0	0	0	0	0	508	510	509	31	0	
10	0	0	0	0	0	507	512	510	31	0	
11	0	0	0	0	0	505	515	509	31	0	
12	0	0	0	0	0	505	515	508	31	0	
13	0	0	0	0	0	504	517	508	31	0	
14	0	0	0	0	0	506	516	508	31	0	
15	0	0	0	0	0	507	515	509	31	0	
0	0	0	0	0	1	506	512	509	31	0	
1	0	0	0	0	0	505	510	508	32	0	
2	0	0	0	0	0	505	510	511	31	0	
3	0	0	0	0	0	505	511	512	32	0	
4	0	0	0	0	0	504	510	512	31	0	
5	0	0	0	0	0	504	512	509	31	0	
6	0	0	0	0	0	505	511	508	31	0	
7	0	0	0	0	0	504	512	509	31	0	
8	0	0	0	0	1	508	514	508	31	0	
9	0	0	0	0	0	505	516	511	31	0	
10	0	0	0	0	0	507	516	511	31	0	
11	0	0	0	0	0	504	515	508	31	0	
12	0	0	0	0	0	505	512	508	31	0	
13	0	0	0	0	0	504	511	507	31	0	
14	0	0	0	0	0	504	510	507	31	0	
15	0	0	0	0	0	504	510	508	32	0	
0	0	0	0	0	1	504	511	508	31	0	
1	0	0	0	0	0	504	509	511	31	0	
2	0	0	0	0	0	504	508	513	31	0	
3	0	0	0	0	0	500	511	512	31	0	
4	0	0	0	0	0	503	515	510	31	0	
5	0	0	0	0	0	505	512	508	31	0	
6	0	0	0	0	0	508	508	504	31	0	
7	0	0	0	0	0	506	507	506	31	0	
8	0	0	0	0	0	505	510	508	31	0	
9	0	0	0	0	0	506	512	511	31	0	
10	0	0	0	0	0	504	510	510	31	0	
11	0	0	0	0	0	504	512	512	31	0	
12	0	0	0	0	0	504	513	512	32	0	
13	0	0	0	0	0	504	511	510	32	0	
14	0	0	0	0	0	502	513	511	31	0	
15	0	0	0	0	0	504	515	510	31	0	
0	0	0	0	0	0	505	515	507	31	0	
1	0	0	0	0	0	507	513	511	31	0	
2	0	0	0	0	0	504	511	510	31	0	
3	0	0	0	0	0	505	512	510	31	0	
4	0	0	0	0	0	505	511	506	31	0	
5	0	0	0	0	0	504	511	509	31	0	
6	0	0	0	0	0	509	514	509	31	0	
7	0	0	0	0	0	507	512	508	31	0	
8	0	0	0	0	1	506	510	507	31	0	
9	0	0	0	0	0	504	513	511	31	0	
10	0	0	0	0	0	507	510	510	31	0	
11	0	0	0	0	0	509	509	507	31	0	
12	0	0	0	0	0	508	511	508	31	0	
13	0	0	0	0	0	507	511	508	31	0	
14	0	0	0	0	0	505	515	508	31	0	
15	0	0	0	0	0	506	516	510	31	0	
0	0	0	0	0	1	505	515	510	31	0	
1	0	0	0	0	0	505	511	511	31	0	
2	0	0	0	0	0	503	510	511	31	0	
3	0	0	0	0	0	505	513	508	31	0	
4	0	0	0	0	0	507	511	509	31	0	
5	0	0	0	0	0	504	514	511	31	0	
6	0	0	0	0	0	507	514	509	31	0	
7	0	0	0	0	0	505	512	508	31	0	
8	0	0	0	0	1	504	513	507	31	0	
9	0	0	0	0	0	504	514	509	31	0	
10	0	0	0	0	0	507	514	508	31	0	
11	0	0	0	0	0	505	510	508	31	0	
12	0	0	0	0	0	504	512	511	32	0	
13	0	0	0	0	0	505	510	508	31	0	
14	0	0	0	0	0	504	510	506	32	0	
15	0	0	0	0	0	504	511	510	31	0	
0	0	0	0	0	1	505	510	508	31	0	
1	0	0	0	0	0	508	513	507	31	0	
2	0	0	0	0	0	509	517	507	31	0	
3	0	0	0	0	0	506	515	511	31	0	
4	0	0	0	0	0	506	516	509	31	0	
5	0	0	0	0	0	503	511	511	31	0	
6	0	0	0	0	0	504	512	509	31	0	
7	0	0	0	0	0	503	511	508	31	0	
8	0	0	0	0	1	502	510	511	31	0	
9	0	0	0	0	0	502	510	511	31	0	
10	0	0	0	0	0	501	507	510	31	0	
11	0	0	0	0	0	502	508	510	32	0	
12	0	0	0	0	0	504	509	510	32	0	
13	0	0	0	0	0	502	508	512	31	0	
14	0	0	0	0	0	510	511	512	31	0	
15	0	0	0	0	0	508	515	511	31	0	
0	0	0	0	0	1	506	516	506	31	0	
1	0	0	0	0	0	504	511	508	31	0	
2	0	0	0	0	0	507	511	507	31	0	
3	0	0	0	0	0	508	511	508	31	0	
4	0	0	0	0	0	508	515	507	31	0	
5	0	0	0	0	0	507	514	507	31	0	
6	0	0	0	0	0	505	515	510	31	0	
7	0	0	0	0	0	505	510	508	31	0	
8	0	0	0	0	1	503	512	507	31	0	
9	0	0	0	0	0	501	511	508	31	0	
10	0	0	0	0	0	503	510	508	31	0	
11	0	0	0	0	0	502	510	509	31	0	
12	0	0	0	0	0	503	512	512	32	0	
13	0	0	0	0	0	504	510	510	31	0	
14	0	0	0	0	0	507	511	508	31	0	
15	0	0	0	0	0	509	512	510	31	0	
0	0	0	0	0	1	504	512	511	31	0	
1	0	0	0	0	0	505	510	509	31	0	
2	0	0	0	0	0	508	513	508	31	0	
3	0	0	0	0	0	507	514	507	31	0	
4	0	0	0	0	0	505	517	507	31	0	
5	0	0	0	0	0	505	512	508	31	0	
6	0	0	0	0	0	505	515	509	31	0	
7	0	0	0	0	0	504	513	511	31	0	
8	0	0	0	0	1	502	514	511	31	0	
9	0	0	0	0	0	503	513	513	31	0	
10	0	0	0	0	0	505	509	510	31	0	
11	0	0	0	0	0	507	509	508	32	0	
12	0	0	0	0	0	505	511	508	31	0	
13	0	0	0	0	0	506	512	507	31	0	
14	0	0	0	0	0	505	512	508	31	0	
15	0	0	0	0	0	505	513	507	31	0	
0	0	0	0	0	1	505	514	509	31	0	
1	0	0	0	0	0	506	510	508	31	0	
2	0	0	0	0	0	505	511	507	31	0	
3	0	0	0	0	0	504	511	511	31	0	
4	0	0	0	0	0	502	515	513	31	0	
5	0	0	0	0	0	502	515	510	31	0	
6	0	0	0	0	0	505	513	511	31	0	
7	0	0	0	0	0	506	515	511	31	0	
8	0	0	0	0	1	504	512	512	31	0	
9	0	0	0	0	0	503	508	511	32	0	
10	0	0	0	0	0	504	510	510	31	0	
11	0	0	0	0	0	508	513	507	31	0	
12	0	0	0	0	0	507	511	505	31	0	
13	0	0	0	0	0	508	510	506	31	0	
14	0	0	0	0	0	507	509	508	31	0	
15	0	0	0	0	0	505	512	510	31	0	
0	0	0	0	0	1	504	513	513	31	0	
1	0	0	0	0	0	507	511	508	31	0	
2	0	0	0	0	0	506	515	510	31	0	
3	0	0	0	0	0	506	514	510	32	0	
4	0	0	0	0	0	506	511	511	31	0	
5	0	0	0	0	0	505	512	510	31	0	
6	0	0	0	0	0	504	511	510	31	0	
7	0	0	0	0	0	503	513	512	31	0	
8	0	0	0	0	1	504	513	509	31	0	
9	0	0	0	0	0	504	512	510	31	0	
10	0	0	0	0	0	506	512	510	31	0	
11	0	0	0	0	0	506	511	510	31	0	
12	0	0	0	0	0	507	511	511	31	0	
13	0	0	0	0	0	506	511	509	31	0	
14	0	0	0	0	0	505	512	511	31	0	
15	0	0	0	0	0	504	513	511	31	0	
0	0	0	0	0	1	504	512	510	31	0	
1	0	0	0	0	0	505	510	510	31	0	
2	0	0	0	0	0	507	511	505	31	0	
3	0	0	0	0	0	507	512	508	31	0	
4	0	0	0	0	0	507	511	510	31	0	
5	0	0	0	0	0	505	513	509	31	0	
6	0	0	0	0	0	506	514	508	31	0	
7	0	0	0	0	0	507	513	509	31	0	
8	0	0	0	0	1	504	514	509	31	0	
9	0	0	0	0	0	506	512	510	31	0	
10	0	0	0	0	0	505	512	510	31	0	
11	0	0	0	0	0	505	513	508	31	0	
12	0	0	0	0	0	504	512	511	31	0	
13	0	0	0	0	0	502	511	512	31	0	
14	0	0	0	0	0	503	511	511	31	0	
15	0	0	0	0	0	504	512	511	31	0	
0	0	0	0	0	1	504	513	508	31	0	
1	0	0	0	0	0	505	513	508	31	0	
2	0	0	0	0	0	506	512	509	31	0	
3	0	0	0	0	0	506	513	511	31	0	
4	0	0	0	0	0	506	514	510	31	0	
5	0	0	0	0	0	506	515	507	31	0	
6	0	0	0	0	0	505	514	507	31	0	
7	0	0	0	0	0	505	513	508	31	0	
8	0	0	0	0	1	505	512	509	31	0	
9	0	0	0	0	0	507	512	510	31	0	
10	0	0	0	0	0	506	512	508	31	0	
11	0	0	0	0	0	504	512	509	31	0	
12	0	0	0	0	0	504	510	508	31	0	
13	0	0	0	0	0	503	509	511	31	0	
14	0	0	0	0	0	501	505	512	32	0	
15	0	0	0	0	0	504	510	514	31	0	
0	0	0	0	0	1	504	513	511	31	0	
1	0	0	0	0	0	504	514	511	31	0	
2	0	0	0	0	0	505	512	509	31	0	
3	0	0	0	0	0	507	511	509	31	0	
4	0	0	0	0	0	507	513	511	31	0	
5	0	0	0	0	0	504	512	509	31	0	
6	0	0	0	0	0	502	510	509	31	0	
7	0	0	0	0	0	504	512	509	31	0	
8	0	0	0	0	1	504	511	508	31	0	
9	0	0	0	0	0	504	511	508	31	0	
10	0	0	0	0	0	505	513	508	31	0	
11	0	0	0	0	0	505	515	508	31	0	
12	0	0	0	0	0	505	515	507	31	0	
13	0	0	0	0	0	508	515	509	31	0	
14	0	0	0	0	0	507	513	510	31	0	
15	0	0	0	0	0	504	512	511	31	0	
0	0	0	0	0	1	504	511	509	31	0	
1	0	0	0	0	0	505	511	508	31	0	
2	0	0	0	0	0	506	509	508	31	0	
3	0	0	0	0	0	507	513	510	31	0	
4	0	0	0	0	0	503	516	509	31	0	
5	0	0	0	0	0	505	513	510	32	0	
6	0	0	0	0	0	505	510	511	32	0	
7	0	0	0	0	0	507	508	508	31	0	
8	0	0	0	0	1	507	512	510	31	0	
9	0	0	0	0	0	504	512	508	31	0	
10	0	0	0	0	0	505	514	510	31	0	
11	0	0	0	0	0	503	512	510	31	0	
12	0	0	0	0	0	504	514	508	31	0	
13	0	0	0	0	0	506	514	511	31	0	
14	0	0	0	0	0	507	512	505	31	0	
15	0	0	0	0	0	508	511	504	31	0	
0	0	0	0	0	1	508	513	506	31	0	
1	0	0	0	0	0	504	510	511	31	0	
2	0	0	0	0	0	506	510	510	31	0	
3	0	0	0	0	0	507	511	508	31	0	
4	0	0	0	0	0	508	512	510	31	0	
5	0	0	0	0	0	505	514	509	31	0	
6	0	0	0	0	0	503	512	509	31	0	
7	0	0	0	0	0	506	515	511	31	0	
8	0	0	0	0	1	504	512	509	31	0	
9	0	0	0	0	0	504	512	511	31	0	
10	0	0	0	0	0	503	512	510	31	0	
11	0	0	0	0	0	502	513	509	31	0	
12	0	0	0	0	0	503	512	508	31	0	
13	0	0	0	0	0	505	508	508	31	0	
14	0	0	0	0	0	505	509	508	31	0	
15	0	0	0	0	0	507	512	508	32	0	
0	0	0	0	0	1	507	510	511	32	0	
1	0	0	0	0	0	505	510	510	31	0	
2	0	0	0	0	0	505	510	512	31	0	
3	0	0	0	0	0	501	513	510	31	0	
4	0	0	0	0	0	501	511	512	31	0	
5	0	0	0	0	0	502	512	513	31	0	
6	0	0	0	0	0	504	513	510	31	0	
7	0	0	0	0	0	505	512	509	31	0	
8	0	0	0	0	1	509	512	510	32	0	
9	0	0	0	0	0	506	512	508	31	0	
10	0	0	0	0	0	507	510	509	31	0	
11	0	0	0	0	0	505	513	509	31	0	
12	0	0	0	0	0	505	511	511	31	0	
13	0	0	0	0	0	507	514	510	31	0	
14	0	0	0	0	0	507	513	508	31	0	
15	0	0	0	0	0	507	512	508	31	0	
0	0	0	0	0	0	508	511	506	31	0	
1	0	0	0	0	0	505	512	507	31	0	
2	0	0	0	0	0	504	513	509	31	0	
3	0	0	0	0	0	501	511	508	31	0	
4	0	0	0	0	0	504	514	509	31	0	
5	0	0	0	0	0	504	514	509	31	0	
6	0	0	0	0	0	504	510	508	31	0	
7	0	0	0	0	0	504	510	509	31	0	
8	0	0	0	0	0	504	512	507	31	0	
9	0	0	0	0	0	506	515	508	31	0	
10	0	0	0	0	0	509	512	509	31	0	
11	0	0	0	0	0	507	512	507	31	0	
12	0	0	0	0	0	505	513	511	31	0	
13	0	0	0	0	0	504	511	514	31	0	
14	0	0	0	0	0	503	510	512	31	0	
15	0	0	0	0	0	504	512	511	31	0	
0	0	0	0	0	0	504	509	508	31	0	
1	0	0	0	0	0	507	508	508	32	0	
2	0	0	0	0	0	504	510	508	31	0	
3	0	0	0	0	0	505	512	508	32	0	
4	0	0	0	0	0	504	510	511	32	0	
5	0	0	0	0	0	505	514	509	31	0	
6	0	0	0	0	0	505	514	507	31	0	
7	0	0	0	0	0	505	513	511	31	0	
8	0	0	0	0	1	504	512	511	31	0	
9	0	0	0	0	0	504	515	508	31	0	
10	0	0	0	0	0	506	513	508	31	0	
11	0	0	0	0	0	508	510	508	31	0	
12	0	0	0	0	0	507	510	508	31	0	
13	0	0	0	0	0	504	512	509	31	0	
14	0	0	0	0	0	505	513	510	32	0	
15	0	0	0	0	0	504	514	509	31	0	
0	0	0	0	0	1	507	512	508	31	0	
1	0	0	0	0	0	507	515	509	31	0	
2	0	0	0	0	0	507	512	508	31	0	
3	0	0	0	0	0	504	514	510	31	0	
4	0	0	0	0	0	505	512	509	31	0	
5	0	0	0	0	0	507	513	510	31	0	
6	0	0	0	0	0	505	512	510	31	0	
7	0	0	0	0	0	505	510	507	31	0	
8	0	0	0	0	1	505	512	510	31	0	
9	0	0	0	0	0	505	512	511	31	0	
10	0	0	0	0	0	503	512	511	31	0	
11	0	0	0	0	0	504	512	510	31	0	
12	0	0	0	0	0	505	511	508	31	0	
13	0	0	0	0	0	504	512	511	32	0	
14	0	0	0	0	0	503	511	509	31	0	
15	0	0	0	0	0	502	511	509	31	0	
0	0	0	0	0	1	504	513	508	31	0	
1	0	0	0	0	0	506	508	510	31	0	
2	0	0	0	0	0	506	512	508	31	0	
3	0	0	0	0	0	506	511	508	31	0	
4	0	0	0	0	0	504	509	508	31	0	
5	0	0	0	0	0	505	510	508	31	0	
6	0	0	0	0	0	505	511	511	31	0	
7	0	0	0	0	0	504	510	508	31	0	
8	0	0	0	0	1	504	512	509	31	0	
9	0	0	0	0	0	504	512	509	31	0	
10	0	0	0	0	0	505	512	508	31	0	
11	0	0	0	0	0	504	514	508	31	0	
12	0	0	0	0	0	503	515	510	31	0	
13	0	0	0	0	0	505	515	510	31	0	
14	0	0	0	0	0	506	513	510	31	0	
15	0	0	0	0	0	507	512	511	31	0	
0	0	0	0	0	1	507	514	511	31	0	
1	0	0	0	0	0	505	513	509	31	0	
2	0	0	0	0	0	508	513	507	31	0	
3	0	0	0	0	0	508	513	508	31	0	
4	0	0	0	0	0	505	514	510	31	0	
5	0	0	0	0	0	504	513	509	31	0	
6	0	0	0	0	0	504	512	508	31	0	
7	0	0	0	0	0	504	511	510	31	0	
8	0	0	0	0	1	505	512	506	31	0	
9	0	0	0	0	0	503	514	507	31	0	
10	0	0	0	0	0	504	512	508	31	0	
11	0	0	0	0	0	505	511	509	31	0	
12	0	0	0	0	0	506	509	507	31	0	
13	0	0	0	0	0	504	512	512	31	0	
14	0	0	0	0	0	503	512	511	31	0	
15	0	0	0	0	0	505	514	511	31	0	
0	0	0	0	0	1	508	511	509	31	0	
1	0	0	0	0	0	505	512	508	31	0	
2	0	0	0	0	0	504	512	508	31	0	
3	0	0	0	0	0	508	512	511	31	0	
4	0	0	0	0	0	508	512	508	31	0	
5	0	0	0	0	0	504	513	511	31	0	
6	0	0	0	0	0	504	508	510	31	0	
7	0	0	0	0	0	501	511	511	31	0	
8	0	0	0	0	1	503	512	508	31	0	
9	0	0	0	0	0	505	512	508	31	0	
10	0	0	0	0	0	506	511	508	31	0	
11	0	0	0	0	0	507	512	507	31	0	
12	0	0	0	0	0	506	514	508	31	0	
13	0	0	0	0	0	507	513	507	31	0	
14	0	0	0	0	0	508	512	509	31	0	
15	0	0	0	0	0	504	509	511	31	0	
0	0	0	0	0	1	504	511	511	31	0	
1	0	0	0	0	0	506	513	512	31	0	
2	0	0	0	0	0	504	516	512	31	0	
3	0	0	0	0	0	504	514	511	31	0	
4	0	0	0	0	0	503	513	512	32	0	
5	0	0	0	0	0	500	513	512	31	0	
6	0	0	0	0	0	503	513	510	31	0	
7	0	0	0	0	0	500	508	508	31	0	
8	0	0	0	0	1	504	507	508	32	0	
9	0	0	0	0	0	505	508	507	31	0	
10	0	0	0	0	0	510	507	503	31	0	
11	0	0	0	0	0	512	510	505	31	0	
12	0	0	0	0	0	512	515	506	31	0	
13	0	0	0	0	0	506	518	509	31	0	
14	0	0	0	0	0	501	519	514	31	0	
15	0	0	0	0	0	501	516	513	31	0	
0	0	0	0	0	1	503	517	513	31	0	
1	0	0	0	0	0	505	517	511	31	0	
2	0	0	0	0	0	504	512	508	31	0	
3	0	0	0	0	0	507	510	508	31	0	
4	0	0	0	0	0	505	512	507	31	0	
5	0	0	0	0	0	506	511	506	31	0	
6	0	0	0	0	0	504	509	506	31	0	
7	0	0	0	0	0	505	509	507	31	0	
8	0	0	0	0	1	505	507	508	31	0	
9	0	0	0	0	0	506	506	506	32	0	
10	0	0	0	0	0	505	506	509	31	0	
11	0	0	0	0	0	504	510	512	32	0	
12	0	0	0	0	0	504	510	513	32	0	
13	0	0	0	0	0	503	511	514	32	0	
14	0	0	0	0	0	505	510	512	31	0	
15	0	0	0	0	0	506	512	511	31	0	
0	0	0	0	0	1	508	514	508	31	0	
1	0	0	0	0	0	508	516	507	31	0	
2	0	0	0	0	0	508	518	508	31	0	
3	0	0	0	0	0	504	518	507	31	0	
4	0	0	0	0	0	504	518	506	31	0	
5	0	0	0	0	0	503	516	507	31	0	
6	0	0	0	0	0	504	516	508	31	0	
7	0	0	0	0	0	504	516	509	31	0	
8	0	0	0	0	1	503	512	508	31	0	
9	0	0	0	0	0	503	510	508	31	0	
10	0	0	0	0	0	503	510	510	31	0	
11	0	0	0	0	0	503	512	509	31	0	
12	0	0	0	0	0	504	515	508	31	0	
13	0	0	0	0	0	504	512	509	31	0	
14	0	0	0	0	0	506	506	508	31	0	
15	0	0	0	0	0	502	505	511	32	0	
0	0	0	0	0	1	499	508	511	31	0	
1	0	0	0	0	0	502	508	511	31	0	
2	0	0	0	0	0	507	509	510	31	0	
3	0	0	0	0	0	513	510	507	31	0	
4	0	0	0	0	0	514	513	508	31	0	
5	0	0	0	0	0	510	515	508	31	0	
6	0	0	0	0	0	508	517	508	31	0	
7	0	0	0	0	0	505	518	513	31	0	
8	0	0	0	0	1	507	519	507	31	0	
9	0	0	0	0	0	508	515	505	31	0	
10	0	0	0	0	0	508	510	509	31	0	
11	0	0	0	0	0	505	510	508	31	0	
12	0	0	0	0	0	503	509	509	32	0	
13	0	0	0	0	0	502	507	511	32	0	
14	0	0	0	0	0	501	507	514	31	0	
15	0	0	0	0	0	499	510	514	31	0	
0	0	0	0	0	1	502	511	513	31	0	
1	0	0	0	0	0	504	514	510	31	0	
2	0	0	0	0	0	507	512	510	31	0	
3	0	0	0	0	0	506	511	510	31	0	
4	0	0	0	0	0	506	510	511	31	0	
5	0	0	0	0	0	504	508	510	31	0	
6	0	0	0	0	0	502	510	508	31	0	
7	0	0	0	0	0	504	513	508	31	0	
8	0	0	0	0	1	503	515	509	31	0	
9	0	0	0	0	0	497	516	513	31	0	
10	0	0	0	0	0	502	516	511	31	0	
11	0	0	0	0	0	507	515	508	31	0	
12	0	0	0	0	0	509	510	505	31	0	
13	0	0	0	0	0	507	511	508	31	0	
14	0	0	0	0	0	500	510	508	32	0	
15	0	0	0	0	0	502	506	511	32	0	
0	0	0	0	0	1	508	510	508	31	0	
1	0	0	0	0	0	514	513	504	31	0	
2	0	0	0	0	0	513	514	507	31	0	
3	0	0	0	0	0	510	512	511	31	0	
4	0	0	0	0	0	504	516	512	31	0	
5	0	0	0	0	0	503	512	508	31	0	
6	0	0	0	0	0	504	507	507	31	0	
7	0	0	0	0	0	504	505	507	31	0	
8	0	0	0	0	1	504	510	506	31	0	
9	0	0	0	0	0	505	515	504	31	0	
10	0	0	0	0	0	509	513	504	31	0	
11	0	0	0	0	0	508	516	504	31	0	
12	0	0	0	0	0	510	519	506	31	0	
13	0	0	0	0	0	512	523	504	31	0	
14	0	0	0	0	0	510	519	503	31	0	
15	0	0	0	0	0	506	510	508	31	0	
0	0	0	0	0	1	499	507	512	31	0	
1	0	0	0	0	0	496	501	514	32	0	
2	0	0	0	0	0	496	507	511	31	0	
3	0	0	0	0	0	499	511	510	31	0	
4	0	0	0	0	0	499	515	512	31	0	
5	0	0	0	0	0	502	515	510	31	0	
6	0	0	0	0	0	499	510	514	31	0	
7	0	0	0	0	0	499	510	514	31	0	
8	0	0	0	0	1	495	511	515	31	0	
9	0	0	0	0	0	501	513	511	31	0	
10	0	0	0	0	0	512	515	507	31	0	
11	0	0	0	0	0	521	513	504	31	0	
12	0	0	0	0	0	516	510	507	31	0	
13	0	0	0	0	0	512	512	507	32	0	
14	0	0	0	0	0	510	516	506	31	0	
15	0	0	0	0	0	506	516	509	31	0	
0	0	0	0	0	1	505	515	510	31	0	
1	0	0	0	0	0	504	512	510	31	0	
2	0	0	0	0	0	504	508	510	31	0	
3	0	0	0	0	0	507	510	508	32	0	
4	0	0	0	0	0	508	509	507	31	0	
5	0	0	0	0	0	506	510	507	31	0	
6	0	0	0	0	0	507	512	508	31	0	
7	0	0	0	0	0	505	513	510	31	0	
8	0	0	0	0	0	502	515	511	31	0	
9	0	0	0	0	0	499	511	513	31	0	
10	0	0	0	0	0	497	510	513	32	0	
11	0	0	0	0	0	499	511	512	31	0	
12	0	0	0	0	0	501	511	509	31	0	
13	0	0	0	0	0	505	510	512	31	0	
14	0	0	0	0	0	503	507	512	31	0	
15	0	0	0	0	0	502	509	511	31	0	
0	0	0	0	0	0	503	513	511	31	0	
1	0	0	0	0	0	507	513	510	31	0	
2	0	0	0	0	0	510	515	508	31	0	
3	0	0	0	0	0	510	514	508	31	0	
4	0	0	0	0	0	504	515	508	32	0	
5	0	0	0	0	0	505	515	511	31	0	
6	0	0	0	0	0	505	512	511	32	0	
7	0	0	0	0	0	504	504	510	32	0	
8	0	0	0	0	0	507	508	509	32	0	
9	0	0	0	0	0	505	510	510	31	0	
10	0	0	0	0	0	505	508	510	31	0	
11	0	0	0	0	0	504	507	510	31	0	
12	0	0	0	0	0	509	509	507	31	0	
13	0	0	0	0	0	505	510	508	31	0	
14	0	0	0	0	0	506	513	510	31	0	
15	0	0	0	0	0	508	512	507	31	0	
0	0	0	0	0	1	511	520	508	31	0	
1	0	0	0	0	0	511	516	505	31	0	
2	0	0	0	0	0	506	522	507	31	0	
3	0	0	0	0	0	499	522	509	31	0	
4	0	0	0	0	0	502	521	508	31	0	
5	0	0	0	0	0	503	519	508	31	0	
6	0	0	0	0	0	505	513	509	31	0	
7	0	0	0	0	0	507	510	510	31	0	
8	0	0	0	0	1	502	504	509	31	0	
9	0	0	0	0	0	503	506	511	31	0	
10	0	0	0	0	0	504	509	511	31	0	
11	0	0	0	0	0	504	512	511	31	0	
12	0	0	0	0	0	505	511	508	31	0	
13	0	0	0	0	0	506	507	508	31	0	
14	0	0	0	0	0	508	507	508	31	0	
15	0	0	0	0	0	508	508	509	31	0	
0	0	0	0	0	1	509	510	509	31	0	
1	0	0	0	0	0	508	511	509	31	0	
2	0	0	0	0	0	506	509	508	32	0	
3	0	0	0	0	0	506	509	508	31	0	
4	0	0	0	0	0	504	511	509	31	0	
5	0	0	0	0	0	502	512	511	31	0	
6	0	0	0	0	0	502	513	509	31	0	
7	0	0	0	0	0	502	513	511	31	0	
8	0	0	0	0	1	504	517	509	31	0	
9	0	0	0	0	0	505	513	510	31	0	
10	0	0	0	0	0	505	516	509	31	0	
11	0	0	0	0	0	508	519	510	31	0	
12	0	0	0	0	0	507	515	510	32	0	
13	0	0	0	0	0	505	510	511	31	0	
14	0	0	0	0	0	503	509	509	32	0	
15	0	0	0	0	0	503	505	510	31	0	
0	0	0	0	0	1	503	507	510	31	0	
1	0	0	0	0	0	501	507	513	31	0	
2	0	0	0	0	0	500	513	512	31	0	
3	0	0	0	0	0	504	515	511	31	0	
4	0	0	0	0	0	504	512	508	31	0	
5	0	0	0	0	0	505	510	506	31	0	
6	0	0	0	0	0	505	513	510	31	0	
7	0	0	0	0	0	507	511	509	31	0	
8	0	0	0	0	1	504	509	508	31	0	
9	0	0	0	0	0	507	508	508	31	0	
