# OpenSignals Text File Format. Version 1
# {"98:D3:71:FE:38:C0": {"position": 0, "device": "bitalino_rev", "device name": "98:D3:71:FE:38:C0", "device connection": "BTH98:D3:71:FE:38:C0", "sampling rate": 1000, "resolution": [4, 1, 1, 1, 1, 10, 10, 10, 10, 6, 6], "firmware version": 1282, "comments": "", "keywords": "", "mode": 0, "sync interval": 2, "date": "2026-6-5", "time": "12:22:36.126", "channels": [1, 2, 3, 4, 5, 6], "sensor": ["RAW", "RAW", "RAW", "RAW", "RAW", "RAW"], "label": ["A1", "A2", "A3", "A4", "A5", "A6"], "column": ["nSeq", "I1", "I2", "O1", "O2", "A1", "A2", "A3", "A4", "A5", "A6"], "special": [{}, {}, {}, {}, {}, {}], "digital IO": [0, 0, 1, 1]}}
# EndOfHeader
0	0	0	0	0	0	504	512	511	31	0	
1	0	0	0	0	2	506	512	510	32	0	
2	0	0	0	0	0	506	510	510	31	0	
3	0	0	0	0	0	504	513	504	31	0	
4	0	0	0	0	0	505	514	502	31	0	
5	0	0	0	0	0	505	512	502	31	0	
6	0	0	0	0	0	504	511	504	31	0	
7	0	0	0	0	0	503	510	504	31	0	
8	0	0	0	0	0	507	512	510	31	0	
9	0	0	0	0	2	504	512	512	32	0	
10	0	0	0	0	0	504	512	512	32	0	
11	0	0	0	0	0	507	512	512	31	0	
12	0	0	0	0	0	504	512	511	32	0	
13	0	0	0	0	0	504	511	514	32	0	
14	0	0	0	0	0	504	511	516	32	0	
15	0	0	0	0	0	504	513	515	32	0	
0	0	0	0	0	0	506	513	514	32	0	
1	0	0	0	0	3	505	514	512	31	0	
2	0	0	0	0	0	507	510	510	31	0	
3	0	0	0	0	0	506	511	507	31	0	
4	0	0	0	0	0	508	510	505	31	0	
5	0	0	0	0	0	505	511	505	31	0	
6	0	0	0	0	0	506	511	504	31	0	
7	0	0	0	0	0	503	513	505	31	0	
8	0	0	0	0	0	504	511	507	31	0	
9	0	0	0	0	2	505	510	508	31	0	
10	0	0	0	0	0	505	511	510	32	0	
11	0	0	0	0	0	505	511	511	32	0	
12	0	0	0	0	0	505	509	512	32	0	
13	0	0	0	0	0	504	511	510	31	0	
14	0	0	0	0	0	505	514	511	31	0	
15	0	0	0	0	0	505	515	509	31	0	
0	0	0	0	0	0	507	512	509	31	0	
1	0	0	0	0	2	505	511	511	31	0	
2	0	0	0	0	0	504	512	511	31	0	
3	0	0	0	0	0	503	512	511	31	0	
4	0	0	0	0	0	506	512	510	31	0	
5	0	0	0	0	0	504	512	511	31	0	
6	0	0	0	0	0	505	510	510	32	0	
7	0	0	0	0	0	502	512	508	31	0	
8	0	0	0	0	0	505	511	508	31	0	
9	0	0	0	0	3	504	510	508	32	0	
10	0	0	0	0	0	505	513	508	32	0	
11	0	0	0	0	0	505	511	510	32	0	
12	0	0	0	0	0	504	511	510	32	0	
13	0	0	0	0	0	504	510	510	31	0	
14	0	0	0	0	0	504	510	511	31	0	
15	0	0	0	0	0	506	509	509	31	0	
0	0	0	0	0	0	509	515	509	31	0	
1	0	0	0	0	1	508	515	508	31	0	
2	0	0	0	0	0	508	515	507	31	0	
3	0	0	0	0	0	508	513	508	31	0	
4	0	0	0	0	0	504	513	506	31	0	
5	0	0	0	0	0	504	514	507	31	0	
6	0	0	0	0	0	504	513	508	31	0	
7	0	0	0	0	0	502	513	507	31	0	
8	0	0	0	0	0	504	511	505	31	0	
9	0	0	0	0	1	504	511	510	32	0	
10	0	0	0	0	0	504	513	509	32	0	
11	0	0	0	0	0	505	512	508	32	0	
12	0	0	0	0	0	505	511	512	32	0	
13	0	0	0	0	0	507	510	510	31	0	
14	0	0	0	0	0	506	511	511	31	0	
15	0	0	0	0	0	504	510	510	31	0	
0	0	0	0	0	0	505	511	508	31	0	
1	0	0	0	0	1	505	511	509	31	0	
2	0	0	0	0	0	504	512	511	31	0	
3	0	0	0	0	0	506	513	510	31	0	
4	0	0	0	0	0	503	510	510	31	0	
5	0	0	0	0	0	505	510	511	31	0	
6	0	0	0	0	0	506	511	513	31	0	
7	0	0	0	0	0	505	513	513	32	0	
8	0	0	0	0	0	507	511	511	32	0	
9	0	0	0	0	3	505	512	509	32	0	
10	0	0	0	0	0	504	512	507	31	0	
11	0	0	0	0	0	504	510	505	31	0	
12	0	0	0	0	0	505	511	504	31	0	
13	0	0	0	0	0	507	512	506	31	0	
14	0	0	0	0	0	506	512	505	31	0	
15	0	0	0	0	0	503	512	510	31	0	
0	0	0	0	0	0	507	513	509	31	0	
1	0	0	0	0	2	505	512	509	31	0	
2	0	0	0	0	0	506	511	509	31	0	
3	0	0	0	0	0	506	514	509	31	0	
4	0	0	0	0	0	505	514	509	31	0	
5	0	0	0	0	0	508	515	510	31	0	
6	0	0	0	0	0	506	512	510	31	0	
7	0	0	0	0	0	504	511	510	32	0	
8	0	0	0	0	0	505	512	508	31	0	
9	0	0	0	0	3	503	513	509	31	0	
10	0	0	0	0	0	505	512	510	31	0	
11	0	0	0	0	0	503	512	510	31	0	
12	0	0	0	0	0	504	515	509	32	0	
13	0	0	0	0	0	503	512	510	32	0	
14	0	0	0	0	0	504	511	511	31	0	
15	0	0	0	0	0	505	510	510	31	0	
0	0	0	0	0	0	506	510	511	32	0	
1	0	0	0	0	3	507	510	507	32	0	
2	0	0	0	0	0	506	512	507	32	0	
3	0	0	0	0	0	504	511	511	32	0	
4	0	0	0	0	0	505	512	510	32	0	
5	0	0	0	0	0	504	514	512	31	0	
6	0	0	0	0	0	505	514	515	31	0	
7	0	0	0	0	0	505	514	513	31	0	
8	0	0	0	0	0	504	512	514	31	0	
9	0	0	0	0	2	504	512	512	31	0	
10	0	0	0	0	0	504	511	506	31	0	
11	0	0	0	0	0	506	513	501	31	0	
12	0	0	0	0	0	504	512	497	31	0	
13	0	0	0	0	0	507	513	499	31	0	
14	0	0	0	0	0	505	512	502	31	0	
15	0	0	0	0	0	506	510	505	31	0	
0	0	0	0	0	0	505	509	507	31	0	
1	0	0	0	0	2	507	510	508	31	0	
2	0	0	0	0	0	504	511	512	32	0	
3	0	0	0	0	0	502	511	514	32	0	
4	0	0	0	0	0	504	513	513	32	0	
5	0	0	0	0	0	504	510	513	32	0	
6	0	0	0	0	0	505	511	511	32	0	
7	0	0	0	0	0	504	512	510	31	0	
8	0	0	0	0	0	505	513	511	31	0	
9	0	0	0	0	2	504	513	511	31	0	
10	0	0	0	0	0	504	512	511	31	0	
11	0	0	0	0	0	502	510	509	31	0	
12	0	0	0	0	0	504	513	511	31	0	
13	0	0	0	0	0	506	510	511	32	0	
14	0	0	0	0	0	505	510	512	32	0	
15	0	0	0	0	0	504	512	512	31	0	
0	0	0	0	0	0	507	513	507	31	0	
1	0	0	0	0	2	507	511	502	31	0	
2	0	0	0	0	0	510	512	500	31	0	
3	0	0	0	0	0	508	513	504	31	0	
4	0	0	0	0	0	507	513	506	31	0	
5	0	0	0	0	0	505	514	508	31	0	
6	0	0	0	0	0	507	512	512	31	0	
7	0	0	0	0	0	505	513	510	31	0	
8	0	0	0	0	0	506	512	510	31	0	
9	0	0	0	0	2	504	514	512	31	0	
10	0	0	0	0	0	506	514	512	32	0	
11	0	0	0	0	0	500	510	513	32	0	
12	0	0	0	0	0	502	513	514	32	0	
13	0	0	0	0	0	501	510	514	32	0	
14	0	0	0	0	0	504	512	513	32	0	
15	0	0	0	0	0	504	512	513	32	0	
0	0	0	0	0	0	505	513	512	32	0	
1	0	0	0	0	2	507	512	508	31	0	
2	0	0	0	0	0	506	510	508	31	0	
3	0	0	0	0	0	507	514	507	31	0	
4	0	0	0	0	0	505	510	505	31	0	
5	0	0	0	0	0	506	511	504	31	0	
6	0	0	0	0	0	505	511	509	31	0	
7	0	0	0	0	0	504	512	508	31	0	
8	0	0	0	0	0	504	511	508	31	0	
9	0	0	0	0	2	505	511	510	31	0	
10	0	0	0	0	0	507	512	510	31	0	
11	0	0	0	0	0	505	512	510	32	0	
12	0	0	0	0	0	504	512	508	31	0	
13	0	0	0	0	0	505	512	508	31	0	
14	0	0	0	0	0	503	511	508	31	0	
15	0	0	0	0	0	505	512	505	31	0	
0	0	0	0	0	0	505	512	507	31	0	
1	0	0	0	0	1	505	512	512	32	0	
2	0	0	0	0	0	505	514	510	32	0	
3	0	0	0	0	0	505	515	510	32	0	
4	0	0	0	0	0	504	511	512	32	0	
5	0	0	0	0	0	504	514	510	32	0	
6	0	0	0	0	0	504	512	509	31	0	
7	0	0	0	0	0	507	512	509	31	0	
8	0	0	0	0	0	506	509	509	30	0	
9	0	0	0	0	1	505	510	507	30	0	
10	0	0	0	0	0	505	510	506	30	0	
11	0	0	0	0	0	507	511	507	31	0	
12	0	0	0	0	0	506	511	511	31	0	
13	0	0	0	0	0	505	511	513	32	0	
14	0	0	0	0	0	506	513	515	32	0	
15	0	0	0	0	0	504	513	512	32	0	
0	0	0	0	0	0	503	514	509	32	0	
1	0	0	0	0	2	503	512	510	32	0	
2	0	0	0	0	0	507	511	507	32	0	
3	0	0	0	0	0	505	513	504	31	0	
4	0	0	0	0	0	506	514	507	31	0	
5	0	0	0	0	0	505	512	510	31	0	
6	0	0	0	0	0	506	512	509	31	0	
7	0	0	0	0	0	505	512	508	31	0	
8	0	0	0	0	0	505	512	504	30	0	
9	0	0	0	0	2	507	513	504	30	0	
10	0	0	0	0	0	507	511	498	30	0	
11	0	0	0	0	0	504	511	498	30	0	
12	0	0	0	0	0	504	509	498	31	0	
13	0	0	0	0	0	503	510	504	31	0	
14	0	0	0	0	0	503	510	510	32	0	
15	0	0	0	0	0	505	512	512	32	0	
0	0	0	0	0	0	505	511	512	32	0	
1	0	0	0	0	2	503	511	515	32	0	
2	0	0	0	0	0	503	513	516	32	0	
3	0	0	0	0	0	504	513	519	32	0	
4	0	0	0	0	0	505	514	518	32	0	
5	0	0	0	0	0	506	514	516	31	0	
6	0	0	0	0	0	507	514	515	31	0	
7	0	0	0	0	0	505	513	512	31	0	
8	0	0	0	0	0	505	511	505	31	0	
9	0	0	0	0	2	503	511	502	31	0	
10	0	0	0	0	0	501	513	502	31	0	
11	0	0	0	0	0	502	511	508	32	0	
12	0	0	0	0	0	501	513	511	32	0	
13	0	0	0	0	0	504	512	513	32	0	
14	0	0	0	0	0	507	512	512	32	0	
15	0	0	0	0	0	509	511	510	31	0	
0	0	0	0	0	0	506	511	506	31	0	
1	0	0	0	0	2	508	513	505	32	0	
2	0	0	0	0	0	506	513	508	32	0	
3	0	0	0	0	0	505	513	514	33	0	
4	0	0	0	0	0	507	515	519	33	0	
5	0	0	0	0	0	507	514	521	33	0	
6	0	0	0	0	0	507	514	521	32	0	
7	0	0	0	0	0	510	515	516	31	0	
8	0	0	0	0	0	506	514	507	30	0	
9	0	0	0	0	3	505	512	500	29	0	
10	0	0	0	0	0	506	510	496	29	0	
11	0	0	0	0	0	507	508	495	30	0	
12	0	0	0	0	0	507	511	494	31	0	
13	0	0	0	0	0	505	512	498	32	0	
14	0	0	0	0	0	502	515	500	32	0	
15	0	0	0	0	0	501	514	506	32	0	
0	0	0	0	0	0	500	513	509	32	0	
1	0	0	0	0	2	502	512	512	31	0	
2	0	0	0	0	0	502	511	517	31	0	
3	0	0	0	0	0	504	510	519	31	0	
4	0	0	0	0	0	503	510	518	31	0	
5	0	0	0	0	0	504	509	519	32	0	
6	0	0	0	0	0	504	510	521	32	0	
7	0	0	0	0	0	505	510	521	33	0	
8	0	0	0	0	0	508	513	517	32	0	
9	0	0	0	0	2	509	515	510	31	0	
10	0	0	0	0	0	508	515	505	31	0	
11	0	0	0	0	0	507	516	499	30	0	
12	0	0	0	0	0	507	515	501	30	0	
13	0	0	0	0	0	510	513	500	31	0	
14	0	0	0	0	0	512	513	499	31	0	
15	0	0	0	0	0	509	510	501	31	0	
0	0	0	0	0	0	505	513	502	31	0	
1	0	0	0	0	3	502	511	505	31	0	
2	0	0	0	0	0	499	511	511	32	0	
3	0	0	0	0	0	501	512	515	32	0	
4	0	0	0	0	0	502	510	514	32	0	
5	0	0	0	0	0	503	510	514	32	0	
6	0	0	0	0	0	505	510	516	32	0	
7	0	0	0	0	0	505	515	516	33	0	
8	0	0	0	0	0	507	515	511	32	0	
9	0	0	0	0	2	505	517	508	31	0	
10	0	0	0	0	0	503	516	504	31	0	
11	0	0	0	0	0	503	513	509	30	0	
12	0	0	0	0	0	500	510	510	30	0	
13	0	0	0	0	0	503	508	516	31	0	
14	0	0	0	0	0	504	507	522	32	0	
15	0	0	0	0	0	506	509	524	33	0	
0	0	0	0	0	0	510	514	519	33	0	
1	0	0	0	0	3	511	514	508	32	0	
2	0	0	0	0	0	508	515	498	31	0	
3	0	0	0	0	0	507	515	494	30	0	
4	0	0	0	0	0	507	510	493	29	0	
5	0	0	0	0	0	507	504	495	29	0	
6	0	0	0	0	0	503	505	497	31	0	
7	0	0	0	0	0	502	509	503	32	0	
8	0	0	0	0	0	503	511	510	32	0	
9	0	0	0	0	1	505	513	515	33	0	
10	0	0	0	0	0	504	514	520	33	0	
11	0	0	0	0	0	504	515	524	34	0	
12	0	0	0	0	0	503	521	527	35	0	
13	0	0	0	0	0	501	522	531	35	0	
14	0	0	0	0	0	501	520	528	33	0	
15	0	0	0	0	0	504	519	519	31	0	
0	0	0	0	0	0	508	515	519	32	0	
1	0	0	0	0	1	511	510	518	32	0	
2	0	0	0	0	0	510	508	517	31	0	
3	0	0	0	0	0	506	507	507	30	0	
4	0	0	0	0	0	505	512	495	27	0	
5	0	0	0	0	0	507	510	473	24	0	
6	0	0	0	0	0	507	501	459	24	0	
7	0	0	0	0	0	508	498	467	26	0	
8	0	0	0	0	0	508	501	489	29	0	
9	0	0	0	0	1	508	508	507	32	0	
10	0	0	0	0	0	502	513	511	34	0	
11	0	0	0	0	0	500	516	507	35	0	
12	0	0	0	0	0	503	519	515	34	0	
13	0	0	0	0	0	508	521	524	33	0	
14	0	0	0	0	0	509	522	515	32	0	
15	0	0	0	0	0	507	516	504	31	0	
0	0	0	0	0	0	503	505	503	31	0	
1	0	0	0	0	3	504	504	507	33	0	
2	0	0	0	0	0	504	513	516	34	0	
3	0	0	0	0	0	504	518	517	34	0	
4	0	0	0	0	0	502	519	515	33	0	
5	0	0	0	0	0	500	519	515	31	0	
6	0	0	0	0	0	502	513	518	30	0	
7	0	0	0	0	0	503	507	523	32	0	
8	0	0	0	0	0	509	503	524	32	0	
9	0	0	0	0	3	508	504	522	31	0	
10	0	0	0	0	0	507	503	505	31	0	
11	0	0	0	0	0	506	509	489	30	0	
12	0	0	0	0	0	504	513	476	29	0	
13	0	0	0	0	0	505	515	487	29	0	
14	0	0	0	0	0	504	513	504	30	0	
15	0	0	0	0	0	504	512	518	32	0	
0	0	0	0	0	0	506	516	523	34	0	
1	0	0	0	0	3	505	521	523	34	0	
2	0	0	0	0	0	504	519	521	33	0	
3	0	0	0	0	0	505	518	518	32	0	
4	0	0	0	0	0	505	518	518	32	0	
5	0	0	0	0	0	506	515	518	31	0	
6	0	0	0	0	0	505	510	515	30	0	
7	0	0	0	0	0	503	507	518	31	0	
8	0	0	0	0	0	507	510	518	30	0	
9	0	0	0	0	2	508	507	504	29	0	
10	0	0	0	0	0	505	505	494	29	0	
11	0	0	0	0	0	505	504	496	30	0	
12	0	0	0	0	0	504	508	499	31	0	
13	0	0	0	0	0	507	511	508	32	0	
14	0	0	0	0	0	506	510	508	32	0	
15	0	0	0	0	0	504	512	510	32	0	
0	0	0	0	0	0	507	515	511	32	0	
1	0	0	0	0	2	504	517	508	31	0	
2	0	0	0	0	0	503	515	508	31	0	
3	0	0	0	0	0	500	513	511	31	0	
4	0	0	0	0	0	502	511	513	32	0	
5	0	0	0	0	0	501	512	515	32	0	
6	0	0	0	0	0	502	512	516	32	0	
7	0	0	0	0	0	503	512	512	32	0	
8	0	0	0	0	0	505	512	507	32	0	
9	0	0	0	0	3	505	511	503	32	0	
10	0	0	0	0	0	505	514	505	32	0	
11	0	0	0	0	0	509	514	509	32	0	
12	0	0	0	0	0	508	514	511	31	0	
13	0	0	0	0	0	508	514	507	31	0	
14	0	0	0	0	0	505	514	508	30	0	
15	0	0	0	0	0	506	510	515	31	0	
0	0	0	0	0	0	507	510	521	31	0	
1	0	0	0	0	3	507	513	520	31	0	
2	0	0	0	0	0	507	511	510	31	0	
3	0	0	0	0	0	504	513	499	31	0	
4	0	0	0	0	0	503	511	500	31	0	
5	0	0	0	0	0	502	513	504	31	0	
6	0	0	0	0	0	504	512	507	32	0	
7	0	0	0	0	0	503	511	512	32	0	
8	0	0	0	0	0	503	512	514	32	0	
9	0	0	0	0	2	502	514	511	33	0	
10	0	0	0	0	0	505	513	510	33	0	
11	0	0	0	0	0	507	513	510	32	0	
12	0	0	0	0	0	507	510	509	31	0	
13	0	0	0	0	0	508	511	505	30	0	
14	0	0	0	0	0	507	509	508	30	0	
15	0	0	0	0	0	504	510	514	30	0	
0	0	0	0	0	0	506	507	513	30	0	
1	0	0	0	0	2	507	508	503	30	0	
2	0	0	0	0	0	508	511	495	31	0	
3	0	0	0	0	0	508	515	497	31	0	
4	0	0	0	0	0	504	517	509	32	0	
5	0	0	0	0	0	503	516	514	32	0	
6	0	0	0	0	0	503	512	515	32	0	
7	0	0	0	0	0	503	512	511	32	0	
8	0	0	0	0	0	503	511	506	31	0	
9	0	0	0	0	2	504	507	505	31	0	
10	0	0	0	0	0	504	508	506	31	0	
11	0	0	0	0	0	505	508	505	31	0	
12	0	0	0	0	0	505	511	507	31	0	
13	0	0	0	0	0	507	512	508	31	0	
14	0	0	0	0	0	508	512	511	31	0	
15	0	0	0	0	0	505	512	507	31	0	
0	0	0	0	0	0	503	515	508	31	0	
1	0	0	0	0	2	504	513	508	31	0	
2	0	0	0	0	0	507	512	510	31	0	
3	0	0	0	0	0	507	515	515	32	0	
4	0	0	0	0	0	505	513	512	32	0	
5	0	0	0	0	0	507	514	510	32	0	
6	0	0	0	0	0	506	514	512	32	0	
7	0	0	0	0	0	508	513	510	32	0	
8	0	0	0	0	0	505	511	511	32	0	
9	0	0	0	0	1	505	513	514	32	0	
10	0	0	0	0	0	506	510	512	32	0	
11	0	0	0	0	0	505	509	511	31	0	
12	0	0	0	0	0	504	510	510	31	0	
13	0	0	0	0	0	503	507	506	31	0	
14	0	0	0	0	0	502	510	503	31	0	
15	0	0	0	0	0	505	514	507	31	0	
0	0	0	0	0	0	504	511	505	31	0	
1	0	0	0	0	1	504	510	508	31	0	
2	0	0	0	0	0	504	511	511	31	0	
3	0	0	0	0	0	503	513	514	32	0	
4	0	0	0	0	0	502	515	519	32	0	
5	0	0	0	0	0	505	516	524	33	0	
6	0	0	0	0	0	505	515	519	32	0	
7	0	0	0	0	0	504	516	512	32	0	
8	0	0	0	0	0	504	513	505	32	0	
9	0	0	0	0	1	507	513	502	31	0	
10	0	0	0	0	0	508	510	504	30	0	
11	0	0	0	0	0	509	513	504	30	0	
12	0	0	0	0	0	506	510	501	30	0	
13	0	0	0	0	0	505	508	503	30	0	
14	0	0	0	0	0	506	512	503	31	0	
15	0	0	0	0	0	504	512	503	31	0	
0	0	0	0	0	0	504	508	505	31	0	
1	0	0	0	0	2	506	510	506	31	0	
2	0	0	0	0	0	504	511	508	32	0	
3	0	0	0	0	0	502	513	513	32	0	
4	0	0	0	0	0	502	513	516	32	0	
5	0	0	0	0	0	502	514	515	32	0	
6	0	0	0	0	0	504	515	511	31	0	
7	0	0	0	0	0	504	516	510	31	0	
8	0	0	0	0	0	505	515	510	31	0	
9	0	0	0	0	2	504	513	509	32	0	
10	0	0	0	0	0	507	513	507	32	0	
11	0	0	0	0	0	508	513	508	32	0	
12	0	0	0	0	0	508	512	508	32	0	
13	0	0	0	0	0	510	508	512	31	0	
14	0	0	0	0	0	510	508	515	31	0	
15	0	0	0	0	0	510	512	513	32	0	
0	0	0	0	0	0	508	512	509	32	0	
1	0	0	0	0	2	505	514	507	31	0	
2	0	0	0	0	0	504	512	505	31	0	
3	0	0	0	0	0	503	512	506	31	0	
4	0	0	0	0	0	503	513	508	31	0	
5	0	0	0	0	0	502	516	509	31	0	
6	0	0	0	0	0	502	516	509	31	0	
7	0	0	0	0	0	503	513	508	31	0	
8	0	0	0	0	0	504	513	506	31	0	
9	0	0	0	0	2	504	514	507	31	0	
10	0	0	0	0	0	504	513	508	31	0	
11	0	0	0	0	0	504	511	510	31	0	
12	0	0	0	0	0	502	512	514	32	0	
13	0	0	0	0	0	504	510	518	32	0	
14	0	0	0	0	0	503	510	514	32	0	
15	0	0	0	0	0	504	509	510	31	0	
0	0	0	0	0	0	507	511	512	31	0	
1	0	0	0	0	2	508	512	513	31	0	
2	0	0	0	0	0	509	515	507	31	0	
3	0	0	0	0	0	509	512	502	31	0	
4	0	0	0	0	0	504	515	502	31	0	
5	0	0	0	0	0	500	511	510	31	0	
6	0	0	0	0	0	500	510	510	31	0	
7	0	0	0	0	0	504	510	510	31	0	
8	0	0	0	0	0	505	510	510	32	0	
9	0	0	0	0	3	507	511	513	32	0	
10	0	0	0	0	0	506	513	516	32	0	
11	0	0	0	0	0	508	516	515	32	0	
12	0	0	0	0	0	507	514	505	31	0	
13	0	0	0	0	0	507	511	499	31	0	
14	0	0	0	0	0	510	508	496	30	0	
15	0	0	0	0	0	506	508	504	31	0	
0	0	0	0	0	0	505	513	511	31	0	
1	0	0	0	0	2	505	511	515	32	0	
2	0	0	0	0	0	507	514	513	32	0	
3	0	0	0	0	0	507	514	511	32	0	
4	0	0	0	0	0	505	514	512	32	0	
5	0	0	0	0	0	505	514	511	32	0	
6	0	0	0	0	0	504	513	508	32	0	
7	0	0	0	0	0	504	512	508	32	0	
8	0	0	0	0	0	504	512	504	31	0	
9	0	0	0	0	3	507	512	505	32	0	
10	0	0	0	0	0	504	511	504	32	0	
11	0	0	0	0	0	502	512	509	31	0	
12	0	0	0	0	0	497	514	511	31	0	
13	0	0	0	0	0	498	514	515	31	0	
14	0	0	0	0	0	499	513	513	31	0	
15	0	0	0	0	0	504	512	512	31	0	
0	0	0	0	0	0	505	514	511	31	0	
1	0	0	0	0	2	508	511	507	31	0	
2	0	0	0	0	0	510	511	506	31	0	
3	0	0	0	0	0	507	508	507	31	0	
4	0	0	0	0	0	505	510	506	31	0	
5	0	0	0	0	0	507	509	509	31	0	
6	0	0	0	0	0	509	512	512	31	0	
7	0	0	0	0	0	508	514	512	31	0	
8	0	0	0	0	0	510	512	511	31	0	
9	0	0	0	0	2	507	510	508	32	0	
10	0	0	0	0	0	506	508	515	32	0	
11	0	0	0	0	0	502	510	513	32	0	
12	0	0	0	0	0	504	510	512	32	0	
13	0	0	0	0	0	506	512	515	32	0	
14	0	0	0	0	0	510	514	512	31	0	
15	0	0	0	0	0	508	517	507	31	0	
0	0	0	0	0	0	505	516	508	31	0	
1	0	0	0	0	3	502	515	504	31	0	
2	0	0	0	0	0	498	514	500	31	0	
3	0	0	0	0	0	501	512	499	31	0	
4	0	0	0	0	0	505	511	502	31	0	
5	0	0	0	0	0	505	511	510	31	0	
6	0	0	0	0	0	505	511	511	31	0	
7	0	0	0	0	0	504	510	508	32	0	
8	0	0	0	0	0	503	510	512	32	0	
9	0	0	0	0	1	502	512	513	32	0	
10	0	0	0	0	0	503	513	515	32	0	
11	0	0	0	0	0	501	512	518	32	0	
12	0	0	0	0	0	505	508	517	31	0	
13	0	0	0	0	0	509	510	513	31	0	
14	0	0	0	0	0	508	511	505	31	0	
15	0	0	0	0	0	511	510	503	31	0	
0	0	0	0	0	0	507	513	505	31	0	
1	0	0	0	0	1	507	512	500	31	0	
2	0	0	0	0	0	507	511	500	31	0	
3	0	0	0	0	0	509	508	497	31	0	
4	0	0	0	0	0	504	508	504	32	0	
5	0	0	0	0	0	499	510	517	32	0	
6	0	0	0	0	0	500	511	521	32	0	
7	0	0	0	0	0	502	511	516	31	0	
8	0	0	0	0	0	504	515	511	31	0	
9	0	0	0	0	2	505	520	508	31	0	
10	0	0	0	0	0	512	520	498	31	0	
11	0	0	0	0	0	511	518	497	31	0	
12	0	0	0	0	0	508	516	497	31	0	
13	0	0	0	0	0	505	515	504	32	0	
14	0	0	0	0	0	503	512	516	32	0	
15	0	0	0	0	0	503	508	526	32	0	
0	0	0	0	0	0	505	506	524	31	0	
1	0	0	0	0	2	511	507	515	31	0	
2	0	0	0	0	0	513	508	486	31	0	
3	0	0	0	0	0	505	515	492	30	0	
4	0	0	0	0	0	499	512	512	31	0	
5	0	0	0	0	0	495	508	495	33	0	
6	0	0	0	0	0	498	510	511	32	0	
7	0	0	0	0	0	494	515	535	31	0	
8	0	0	0	0	0	503	518	539	31	0	
9	0	0	0	0	2	505	516	526	31	0	
10	0	0	0	0	0	505	510	512	31	0	
11	0	0	0	0	0	508	511	504	31	0	
12	0	0	0	0	0	512	512	497	31	0	
13	0	0	0	0	0	511	510	496	31	0	
14	0	0	0	0	0	508	508	496	31	0	
15	0	0	0	0	0	500	508	506	32	0	
0	0	0	0	0	0	493	512	519	32	0	
1	0	0	0	0	3	495	510	518	32	0	
2	0	0	0	0	0	501	509	504	31	0	
3	0	0	0	0	0	507	514	501	31	0	
4	0	0	0	0	0	512	511	513	31	0	
5	0	0	0	0	0	519	510	514	31	0	
6	0	0	0	0	0	519	515	504	31	0	
7	0	0	0	0	0	511	520	497	32	0	
8	0	0	0	0	0	508	520	495	31	0	
9	0	0	0	0	3	508	516	491	30	0	
10	0	0	0	0	0	507	511	509	32	0	
11	0	0	0	0	0	503	505	511	32	0	
12	0	0	0	0	0	498	514	520	31	0	
13	0	0	0	0	0	497	518	531	31	0	
14	0	0	0	0	0	498	517	514	32	0	
15	0	0	0	0	0	506	511	515	32	0	
0	0	0	0	0	0	503	505	510	32	0	
1	0	0	0	0	3	504	506	509	31	0	
2	0	0	0	0	0	498	507	522	31	0	
3	0	0	0	0	0	499	508	536	31	0	
4	0	0	0	0	0	499	516	529	31	0	
5	0	0	0	0	0	501	511	507	32	0	
6	0	0	0	0	0	504	507	504	32	0	
7	0	0	0	0	0	507	507	502	32	0	
8	0	0	0	0	0	512	510	486	31	0	
9	0	0	0	0	2	515	513	486	31	0	
10	0	0	0	0	0	515	514	493	31	0	
11	0	0	0	0	0	511	516	511	30	0	
12	0	0	0	0	0	507	515	515	31	0	
13	0	0	0	0	0	509	515	499	30	0	
14	0	0	0	0	0	508	514	500	31	0	
15	0	0	0	0	0	503	511	518	32	0	
0	0	0	0	0	0	493	508	531	32	0	
1	0	0	0	0	2	499	509	515	32	0	
2	0	0	0	0	0	503	511	494	32	0	
3	0	0	0	0	0	502	517	506	31	0	
4	0	0	0	0	0	499	512	524	32	0	
5	0	0	0	0	0	503	511	532	32	0	
6	0	0	0	0	0	510	513	514	31	0	
7	0	0	0	0	0	512	513	499	31	0	
8	0	0	0	0	0	516	513	470	31	0	
9	0	0	0	0	2	512	511	473	31	0	
10	0	0	0	0	0	503	512	523	31	0	
11	0	0	0	0	0	509	511	495	32	0	
12	0	0	0	0	0	508	508	495	31	0	
13	0	0	0	0	0	500	509	519	31	0	
14	0	0	0	0	0	504	512	538	31	0	
15	0	0	0	0	0	503	514	524	31	0	
0	0	0	0	0	0	503	514	520	31	0	
1	0	0	0	0	3	499	513	527	31	0	
2	0	0	0	0	0	499	516	517	31	0	
3	0	0	0	0	0	505	516	499	32	0	
4	0	0	0	0	0	506	511	496	32	0	
5	0	0	0	0	0	504	511	515	32	0	
6	0	0	0	0	0	504	511	523	32	0	
7	0	0	0	0	0	507	512	515	32	0	
8	0	0	0	0	0	508	514	512	31	0	
9	0	0	0	0	2	509	510	503	31	0	
10	0	0	0	0	0	512	512	505	32	0	
11	0	0	0	0	0	509	512	502	31	0	
12	0	0	0	0	0	508	508	502	32	0	
13	0	0	0	0	0	503	506	499	31	0	
14	0	0	0	0	0	502	511	506	31	0	
15	0	0	0	0	0	502	514	510	31	0	
0	0	0	0	0	0	505	516	507	31	0	
1	0	0	0	0	1	504	518	503	31	0	
2	0	0	0	0	0	505	514	499	31	0	
3	0	0	0	0	0	505	510	499	31	0	
4	0	0	0	0	0	503	511	510	31	0	
5	0	0	0	0	0	502	512	520	31	0	
6	0	0	0	0	0	502	513	521	31	0	
7	0	0	0	0	0	503	512	514	31	0	
8	0	0	0	0	0	500	509	517	32	0	
9	0	0	0	0	1	502	508	519	32	0	
10	0	0	0	0	0	503	507	512	32	0	
11	0	0	0	0	0	504	511	512	32	0	
12	0	0	0	0	0	506	510	510	32	0	
13	0	0	0	0	0	506	510	507	31	0	
14	0	0	0	0	0	507	513	509	31	0	
15	0	0	0	0	0	506	511	502	31	0	
0	0	0	0	0	0	511	512	499	31	0	
1	0	0	0	0	1	513	512	500	31	0	
2	0	0	0	0	0	510	512	504	32	0	
3	0	0	0	0	0	507	515	509	32	0	
4	0	0	0	0	0	504	512	510	32	0	
5	0	0	0	0	0	501	512	507	33	0	
6	0	0	0	0	0	498	513	512	32	0	
7	0	0	0	0	0	500	513	515	32	0	
8	0	0	0	0	0	502	513	517	31	0	
9	0	0	0	0	3	505	514	514	30	0	
10	0	0	0	0	0	509	511	508	30	0	
11	0	0	0	0	0	510	510	500	30	0	
12	0	0	0	0	0	515	511	493	30	0	
13	0	0	0	0	0	512	513	491	30	0	
14	0	0	0	0	0	507	510	492	31	0	
15	0	0	0	0	0	502	510	502	31	0	
0	0	0	0	0	0	499	511	518	32	0	
1	0	0	0	0	2	499	511	528	33	0	
2	0	0	0	0	0	500	512	531	33	0	
3	0	0	0	0	0	504	515	524	32	0	
4	0	0	0	0	0	506	513	516	32	0	
5	0	0	0	0	0	505	511	505	31	0	
6	0	0	0	0	0	502	511	511	31	0	
7	0	0	0	0	0	500	512	513	31	0	
8	0	0	0	0	0	507	513	511	32	0	
9	0	0	0	0	2	510	518	502	32	0	
10	0	0	0	0	0	511	516	504	32	0	
11	0	0	0	0	0	508	515	511	32	0	
12	0	0	0	0	0	504	511	516	31	0	
13	0	0	0	0	0	503	509	530	31	0	
14	0	0	0	0	0	498	507	531	31	0	
15	0	0	0	0	0	497	508	524	31	0	
0	0	0	0	0	0	500	509	509	31	0	
1	0	0	0	0	2	504	509	492	31	0	
2	0	0	0	0	0	506	510	481	31	0	
3	0	0	0	0	0	509	512	479	31	0	
4	0	0	0	0	0	510	512	483	31	0	
5	0	0	0	0	0	508	513	492	31	0	
6	0	0	0	0	0	508	513	495	31	0	
7	0	0	0	0	0	507	514	495	31	0	
8	0	0	0	0	0	503	515	505	31	0	
9	0	0	0	0	2	503	517	516	31	0	
10	0	0	0	0	0	502	516	523	31	0	
11	0	0	0	0	0	500	515	524	31	0	
12	0	0	0	0	0	505	515	526	32	0	
13	0	0	0	0	0	506	514	518	32	0	
14	0	0	0	0	0	510	511	514	32	0	
15	0	0	0	0	0	511	513	512	32	0	
0	0	0	0	0	0	509	511	516	32	0	
1	0	0	0	0	3	506	512	516	32	0	
2	0	0	0	0	0	508	512	509	31	0	
3	0	0	0	0	0	509	512	505	31	0	
4	0	0	0	0	0	506	508	507	31	0	
5	0	0	0	0	0	503	508	507	31	0	
6	0	0	0	0	0	503	509	507	31	0	
7	0	0	0	0	0	504	511	504	31	0	
8	0	0	0	0	0	507	510	505	31	0	
9	0	0	0	0	2	506	508	503	31	0	
10	0	0	0	0	0	503	510	510	31	0	
11	0	0	0	0	0	499	510	515	32	0	
12	0	0	0	0	0	500	508	519	32	0	
13	0	0	0	0	0	502	509	514	33	0	
14	0	0	0	0	0	504	512	515	32	0	
15	0	0	0	0	0	505	515	511	32	0	
0	0	0	0	0	0	505	518	508	31	0	
1	0	0	0	0	2	505	515	508	31	0	
2	0	0	0	0	0	508	515	508	31	0	
3	0	0	0	0	0	508	512	508	32	0	
4	0	0	0	0	0	508	512	509	32	0	
5	0	0	0	0	0	507	512	507	32	0	
6	0	0	0	0	0	507	514	504	31	0	
7	0	0	0	0	0	508	512	499	30	0	
8	0	0	0	0	0	511	514	491	29	0	
9	0	0	0	0	2	506	511	496	29	0	
10	0	0	0	0	0	504	506	506	30	0	
11	0	0	0	0	0	505	506	510	31	0	
12	0	0	0	0	0	503	508	516	32	0	
13	0	0	0	0	0	502	511	515	33	0	
14	0	0	0	0	0	502	511	515	32	0	
15	0	0	0	0	0	503	510	515	32	0	
0	0	0	0	0	0	503	513	518	32	0	
1	0	0	0	0	2	502	515	517	32	0	
2	0	0	0	0	0	505	518	514	31	0	
3	0	0	0	0	0	507	517	511	31	0	
4	0	0	0	0	0	508	517	515	32	0	
5	0	0	0	0	0	509	514	511	32	0	
6	0	0	0	0	0	511	515	508	32	0	
7	0	0	0	0	0	511	514	500	32	0	
8	0	0	0	0	0	508	512	500	32	0	
9	0	0	0	0	3	506	511	502	32	0	
10	0	0	0	0	0	503	508	504	32	0	
11	0	0	0	0	0	502	511	508	31	0	
12	0	0	0	0	0	502	514	508	30	0	
13	0	0	0	0	0	500	514	505	29	0	
14	0	0	0	0	0	500	510	503	30	0	
15	0	0	0	0	0	500	507	503	30	0	
0	0	0	0	0	0	504	511	508	31	0	
1	0	0	0	0	1	504	511	515	33	0	
2	0	0	0	0	0	503	515	521	33	0	
3	0	0	0	0	0	505	517	519	32	0	
4	0	0	0	0	0	506	515	517	31	0	
5	0	0	0	0	0	507	513	515	31	0	
6	0	0	0	0	0	504	512	519	31	0	
7	0	0	0	0	0	505	512	518	32	0	
8	0	0	0	0	0	506	511	519	32	0	
9	0	0	0	0	1	506	512	519	33	0	
10	0	0	0	0	0	507	512	515	33	0	
11	0	0	0	0	0	508	512	513	32	0	
12	0	0	0	0	0	508	515	509	31	0	
13	0	0	0	0	0	508	515	505	31	0	
14	0	0	0	0	0	509	515	493	30	0	
15	0	0	0	0	0	510	515	485	30	0	
0	0	0	0	0	0	511	511	481	30	0	
1	0	0	0	0	1	509	508	482	31	0	
2	0	0	0	0	0	505	513	498	32	0	
3	0	0	0	0	0	501	511	515	32	0	
4	0	0	0	0	0	500	512	525	32	0	
5	0	0	0	0	0	500	512	528	32	0	
6	0	0	0	0	0	504	511	527	31	0	
7	0	0	0	0	0	503	512	519	31	0	
8	0	0	0	0	0	506	508	505	31	0	
9	0	0	0	0	2	507	511	495	31	0	
10	0	0	0	0	0	505	511	497	32	0	
11	0	0	0	0	0	507	511	503	32	0	
12	0	0	0	0	0	506	511	512	32	0	
13	0	0	0	0	0	502	512	518	32	0	
14	0	0	0	0	0	503	510	513	31	0	
15	0	0	0	0	0	507	511	510	32	0	
0	0	0	0	0	0	505	512	507	31	0	
1	0	0	0	0	3	506	513	508	31	0	
2	0	0	0	0	0	505	512	508	31	0	
3	0	0	0	0	0	502	513	511	31	0	
4	0	0	0	0	0	500	514	512	31	0	
5	0	0	0	0	0	503	513	509	31	0	
6	0	0	0	0	0	502	514	511	31	0	
7	0	0	0	0	0	506	510	511	31	0	
8	0	0	0	0	0	504	509	511	31	0	
9	0	0	0	0	2	504	508	513	32	0	
10	0	0	0	0	0	505	511	515	32	0	
11	0	0	0	0	0	509	515	513	32	0	
12	0	0	0	0	0	510	514	509	31	0	
13	0	0	0	0	0	510	515	508	31	0	
14	0	0	0	0	0	508	514	506	31	0	
15	0	0	0	0	0	510	513	505	31	0	
0	0	0	0	0	0	508	515	508	31	0	
1	0	0	0	0	3	507	515	513	31	0	
2	0	0	0	0	0	507	509	507	31	0	
3	0	0	0	0	0	507	512	506	31	0	
4	0	0	0	0	0	507	512	505	31	0	
5	0	0	0	0	0	503	514	508	31	0	
6	0	0	0	0	0	498	510	513	32	0	
7	0	0	0	0	0	499	507	516	32	0	
8	0	0	0	0	0	501	509	515	32	0	
9	0	0	0	0	2	503	510	510	32	0	
10	0	0	0	0	0	503	511	507	32	0	
11	0	0	0	0	0	507	514	510	31	0	
12	0	0	0	0	0	508	514	508	31	0	
13	0	0	0	0	0	506	508	508	31	0	
14	0	0	0	0	0	504	511	516	31	0	
15	0	0	0	0	0	503	514	513	31	0	
0	0	0	0	0	0	506	514	511	31	0	
1	0	0	0	0	2	506	510	508	31	0	
2	0	0	0	0	0	504	510	508	31	0	
3	0	0	0	0	0	505	509	511	32	0	
4	0	0	0	0	0	504	510	516	32	0	
5	0	0	0	0	0	507	515	513	32	0	
6	0	0	0	0	0	508	513	504	32	0	
7	0	0	0	0	0	508	516	501	31	0	
8	0	0	0	0	0	506	519	503	31	0	
9	0	0	0	0	3	505	515	509	31	0	
10	0	0	0	0	0	505	516	509	32	0	
11	0	0	0	0	0	507	513	511	31	0	
12	0	0	0	0	0	507	511	507	31	0	
13	0	0	0	0	0	506	512	503	31	0	
14	0	0	0	0	0	505	512	496	31	0	
15	0	0	0	0	0	505	512	500	31	0	
0	0	0	0	0	0	504	510	511	31	0	
1	0	0	0	0	2	502	510	518	32	0	
2	0	0	0	0	0	500	508	519	32	0	
3	0	0	0	0	0	504	509	519	31	0	
4	0	0	0	0	0	504	510	519	31	0	
5	0	0	0	0	0	504	511	510	30	0	
6	0	0	0	0	0	507	512	500	30	0	
7	0	0	0	0	0	508	511	492	30	0	
8	0	0	0	0	0	505	510	493	31	0	
9	0	0	0	0	2	508	508	503	32	0	
10	0	0	0	0	0	511	510	510	32	0	
11	0	0	0	0	0	507	513	514	32	0	
12	0	0	0	0	0	504	511	516	32	0	
13	0	0	0	0	0	501	512	512	32	0	
14	0	0	0	0	0	497	514	517	32	0	
15	0	0	0	0	0	500	515	519	32	0	
0	0	0	0	0	0	503	516	523	32	0	
1	0	0	0	0	2	504	514	518	31	0	
2	0	0	0	0	0	506	513	513	31	0	
3	0	0	0	0	0	505	512	505	31	0	
4	0	0	0	0	0	508	511	503	31	0	
5	0	0	0	0	0	508	511	496	31	0	
6	0	0	0	0	0	508	513	495	31	0	
7	0	0	0	0	0	506	512	496	31	0	
8	0	0	0	0	0	504	514	503	32	0	
9	0	0	0	0	2	505	511	511	31	0	
10	0	0	0	0	0	509	511	515	31	0	
11	0	0	0	0	0	511	512	512	32	0	
12	0	0	0	0	0	511	512	510	31	0	
13	0	0	0	0	0	507	513	508	31	0	
14	0	0	0	0	0	504	512	510	31	0	
15	0	0	0	0	0	504	512	512	31	0	
0	0	0	0	0	0	503	512	512	31	0	
1	0	0	0	0	1	500	509	512	31	0	
2	0	0	0	0	0	503	510	512	31	0	
3	0	0	0	0	0	506	508	514	32	0	
4	0	0	0	0	0	507	511	514	32	0	
5	0	0	0	0	0	507	513	511	32	0	
6	0	0	0	0	0	505	513	511	31	0	
7	0	0	0	0	0	504	514	511	31	0	
8	0	0	0	0	0	506	511	504	31	0	
9	0	0	0	0	1	502	510	507	31	0	
10	0	0	0	0	0	499	510	511	32	0	
11	0	0	0	0	0	499	510	511	31	0	
12	0	0	0	0	0	503	515	511	31	0	
13	0	0	0	0	0	505	517	511	31	0	
14	0	0	0	0	0	508	516	508	31	0	
15	0	0	0	0	0	507	515	510	32	0	
0	0	0	0	0	0	507	514	507	32	0	
1	0	0	0	0	2	503	513	507	31	0	
2	0	0	0	0	0	507	514	508	31	0	
3	0	0	0	0	0	507	515	510	31	0	
4	0	0	0	0	0	508	513	512	31	0	
5	0	0	0	0	0	506	512	514	31	0	
6	0	0	0	0	0	508	511	510	31	0	
7	0	0	0	0	0	510	510	511	31	0	
8	0	0	0	0	0	510	510	510	32	0	
9	0	0	0	0	3	506	511	507	32	0	
10	0	0	0	0	0	503	512	503	31	0	
11	0	0	0	0	0	500	510	507	32	0	
12	0	0	0	0	0	500	509	508	31	0	
13	0	0	0	0	0	502	511	511	31	0	
14	0	0	0	0	0	503	511	512	31	0	
15	0	0	0	0	0	503	512	515	31	0	
0	0	0	0	0	0	503	513	511	32	0	
1	0	0	0	0	2	501	511	506	31	0	
2	0	0	0	0	0	505	514	505	31	0	
3	0	0	0	0	0	508	512	502	31	0	
4	0	0	0	0	0	507	508	502	31	0	
5	0	0	0	0	0	507	511	504	31	0	
6	0	0	0	0	0	505	512	505	31	0	
7	0	0	0	0	0	506	512	508	32	0	
8	0	0	0	0	0	505	513	509	32	0	
9	0	0	0	0	3	506	515	511	32	0	
10	0	0	0	0	0	505	514	510	32	0	
11	0	0	0	0	0	505	512	512	31	0	
12	0	0	0	0	0	506	510	510	31	0	
13	0	0	0	0	0	504	512	512	31	0	
14	0	0	0	0	0	501	512	517	31	0	
15	0	0	0	0	0	505	508	510	31	0	
0	0	0	0	0	0	505	510	507	32	0	
1	0	0	0	0	2	504	512	512	32	0	
2	0	0	0	0	0	504	511	512	31	0	
3	0	0	0	0	0	505	510	512	31	0	
4	0	0	0	0	0	508	512	508	32	0	
5	0	0	0	0	0	507	513	511	32	0	
6	0	0	0	0	0	505	512	508	31	0	
7	0	0	0	0	0	507	511	509	31	0	
8	0	0	0	0	0	506	512	509	31	0	
9	0	0	0	0	2	507	514	509	31	0	
10	0	0	0	0	0	507	514	505	31	0	
11	0	0	0	0	0	504	512	502	31	0	
12	0	0	0	0	0	504	515	504	31	0	
13	0	0	0	0	0	501	512	508	31	0	
14	0	0	0	0	0	504	511	510	32	0	
15	0	0	0	0	0	505	515	508	32	0	
0	0	0	0	0	0	507	515	510	32	0	
1	0	0	0	0	2	504	513	512	31	0	
2	0	0	0	0	0	503	512	513	31	0	
3	0	0	0	0	0	505	511	511	31	0	
4	0	0	0	0	0	508	510	508	31	0	
5	0	0	0	0	0	504	510	505	31	0	
6	0	0	0	0	0	503	513	508	31	0	
7	0	0	0	0	0	505	511	513	31	0	
8	0	0	0	0	0	503	512	519	31	0	
9	0	0	0	0	2	503	511	511	32	0	
10	0	0	0	0	0	502	513	505	32	0	
11	0	0	0	0	0	503	515	506	32	0	
12	0	0	0	0	0	504	518	507	31	0	
13	0	0	0	0	0	504	517	508	31	0	
14	0	0	0	0	0	506	511	512	31	0	
15	0	0	0	0	0	505	509	510	31	0	
0	0	0	0	0	0	504	508	511	32	0	
1	0	0	0	0	3	507	507	509	31	0	
2	0	0	0	0	0	508	511	510	31	0	
3	0	0	0	0	0	506	512	511	31	0	
4	0	0	0	0	0	511	512	513	31	0	
5	0	0	0	0	0	511	513	512	32	0	
6	0	0	0	0	0	510	511	510	32	0	
7	0	0	0	0	0	509	510	503	31	0	
8	0	0	0	0	0	505	511	497	31	0	
9	0	0	0	0	2	507	510	493	31	0	
10	0	0	0	0	0	509	512	497	31	0	
11	0	0	0	0	0	504	513	507	31	0	
12	0	0	0	0	0	503	512	513	32	0	
13	0	0	0	0	0	500	513	517	32	0	
14	0	0	0	0	0	501	513	521	32	0	
15	0	0	0	0	0	499	512	520	32	0	
0	0	0	0	0	0	501	512	524	31	0	
1	0	0	0	0	2	502	512	515	31	0	
2	0	0	0	0	0	503	515	505	31	0	
3	0	0	0	0	0	504	515	502	31	0	
4	0	0	0	0	0	507	512	500	31	0	
5	0	0	0	0	0	505	511	500	31	0	
6	0	0	0	0	0	504	508	504	31	0	
7	0	0	0	0	0	507	510	510	31	0	
8	0	0	0	0	0	504	510	515	31	0	
9	0	0	0	0	1	505	510	513	32	0	
10	0	0	0	0	0	506	510	513	32	0	
11	0	0	0	0	0	508	514	514	32	0	
12	0	0	0	0	0	504	513	511	31	0	
13	0	0	0	0	0	504	516	507	31	0	
14	0	0	0	0	0	504	518	508	32	0	
15	0	0	0	0	0	504	513	510	31	0	
0	0	0	0	0	0	508	510	509	31	0	
1	0	0	0	0	1	508	511	504	31	0	
2	0	0	0	0	0	509	513	503	31	0	
3	0	0	0	0	0	505	513	508	31	0	
4	0	0	0	0	0	505	514	507	31	0	
5	0	0	0	0	0	507	514	505	31	0	
6	0	0	0	0	0	504	511	510	32	0	
7	0	0	0	0	0	503	511	510	31	0	
8	0	0	0	0	0	503	513	512	32	0	
9	0	0	0	0	1	503	513	515	32	0	
10	0	0	0	0	0	503	515	513	32	0	
11	0	0	0	0	0	505	515	509	31	0	
12	0	0	0	0	0	509	514	507	32	0	
13	0	0	0	0	0	508	512	506	31	0	
14	0	0	0	0	0	504	511	507	31	0	
15	0	0	0	0	0	506	509	507	31	0	
0	0	0	0	0	0	504	508	507	32	0	
1	0	0	0	0	2	505	511	509	32	0	
2	0	0	0	0	0	506	512	510	32	0	
3	0	0	0	0	0	503	511	509	32	0	
4	0	0	0	0	0	505	513	508	31	0	
5	0	0	0	0	0	504	511	510	31	0	
6	0	0	0	0	0	503	512	512	31	0	
7	0	0	0	0	0	500	512	519	31	0	
8	0	0	0	0	0	503	513	515	31	0	
9	0	0	0	0	2	505	510	513	31	0	
10	0	0	0	0	0	508	511	508	31	0	
11	0	0	0	0	0	505	513	507	31	0	
12	0	0	0	0	0	507	511	505	31	0	
13	0	0	0	0	0	504	510	504	32	0	
14	0	0	0	0	0	505	509	506	31	0	
15	0	0	0	0	0	504	512	510	31	0	
0	0	0	0	0	0	504	511	507	31	0	
1	0	0	0	0	2	505	511	508	31	0	
2	0	0	0	0	0	507	514	509	31	0	
3	0	0	0	0	0	507	512	509	31	0	
4	0	0	0	0	0	507	515	511	31	0	
5	0	0	0	0	0	504	513	511	32	0	
6	0	0	0	0	0	507	515	512	32	0	
7	0	0	0	0	0	505	514	510	31	0	
8	0	0	0	0	0	506	513	509	31	0	
9	0	0	0	0	2	505	512	508	31	0	
10	0	0	0	0	0	505	514	507	31	0	
11	0	0	0	0	0	505	512	509	31	0	
12	0	0	0	0	0	504	512	509	32	0	
13	0	0	0	0	0	505	511	509	31	0	
14	0	0	0	0	0	503	511	509	31	0	
15	0	0	0	0	0	503	512	508	31	0	
0	0	0	0	0	0	505	513	510	31	0	
1	0	0	0	0	3	502	510	510	31	0	
2	0	0	0	0	0	504	511	508	31	0	
3	0	0	0	0	0	508	511	508	31	0	
4	0	0	0	0	0	508	513	507	31	0	
5	0	0	0	0	0	509	513	507	31	0	
6	0	0	0	0	0	508	511	507	31	0	
7	0	0	0	0	0	507	513	508	31	0	
8	0	0	0	0	0	504	513	510	31	0	
9	0	0	0	0	2	505	515	511	31	0	
10	0	0	0	0	0	507	513	510	31	0	
11	0	0	0	0	0	503	512	510	31	0	
12	0	0	0	0	0	504	512	514	32	0	
13	0	0	0	0	0	503	511	515	32	0	
14	0	0	0	0	0	504	510	514	32	0	
15	0	0	0	0	0	507	508	512	32	0	
0	0	0	0	0	0	505	510	513	32	0	
1	0	0	0	0	2	502	512	514	31	0	
2	0	0	0	0	0	504	513	511	31	0	
3	0	0	0	0	0	505	513	506	31	0	
4	0	0	0	0	0	504	513	504	32	0	
5	0	0	0	0	0	507	514	505	31	0	
6	0	0	0	0	0	505	511	504	31	0	
7	0	0	0	0	0	502	510	507	31	0	
8	0	0	0	0	0	503	512	505	31	0	
9	0	0	0	0	2	504	512	506	31	0	
10	0	0	0	0	0	504	513	506	31	0	
11	0	0	0	0	0	508	509	508	31	0	
12	0	0	0	0	0	510	511	508	31	0	
13	0	0	0	0	0	507	512	510	31	0	
14	0	0	0	0	0	504	512	507	31	0	
15	0	0	0	0	0	503	513	509	31	0	
0	0	0	0	0	0	504	512	506	32	0	
1	0	0	0	0	2	504	512	508	31	0	
2	0	0	0	0	0	504	514	508	31	0	
3	0	0	0	0	0	505	515	511	31	0	
4	0	0	0	0	0	504	511	508	32	0	
5	0	0	0	0	0	503	510	508	32	0	
6	0	0	0	0	0	506	510	508	31	0	
7	0	0	0	0	0	507	511	511	31	0	
8	0	0	0	0	0	507	514	509	31	0	
9	0	0	0	0	3	508	514	512	31	0	
10	0	0	0	0	0	505	511	516	31	0	
11	0	0	0	0	0	504	511	511	31	0	
12	0	0	0	0	0	505	509	507	31	0	
13	0	0	0	0	0	508	511	507	31	0	
14	0	0	0	0	0	506	511	508	31	0	
15	0	0	0	0	0	505	510	509	32	0	
0	0	0	0	0	0	504	512	511	32	0	
1	0	0	0	0	2	504	510	513	32	0	
2	0	0	0	0	0	505	509	509	32	0	
3	0	0	0	0	0	502	512	511	31	0	
4	0	0	0	0	0	505	512	511	32	0	
5	0	0	0	0	0	507	513	513	31	0	
6	0	0	0	0	0	508	511	507	31	0	
7	0	0	0	0	0	505	513	508	31	0	
8	0	0	0	0	0	503	513	510	31	0	
9	0	0	0	0	1	503	513	510	31	0	
10	0	0	0	0	0	503	513	508	31	0	
11	0	0	0	0	0	504	514	514	31	0	
12	0	0	0	0	0	505	515	512	31	0	
13	0	0	0	0	0	506	512	508	31	0	
14	0	0	0	0	0	507	512	506	31	0	
15	0	0	0	0	0	507	513	508	31	0	
0	0	0	0	0	0	503	511	510	31	0	
1	0	0	0	0	1	504	511	510	31	0	
2	0	0	0	0	0	503	511	507	31	0	
3	0	0	0	0	0	507	512	504	31	0	
4	0	0	0	0	0	504	510	507	32	0	
5	0	0	0	0	0	504	510	508	31	0	
6	0	0	0	0	0	504	515	512	31	0	
7	0	0	0	0	0	506	514	513	31	0	
8	0	0	0	0	0	503	512	509	31	0	
9	0	0	0	0	1	505	510	510	31	0	
10	0	0	0	0	0	505	511	510	31	0	
11	0	0	0	0	0	505	512	508	31	0	
12	0	0	0	0	0	504	513	507	31	0	
13	0	0	0	0	0	506	510	508	31	0	
14	0	0	0	0	0	508	512	511	31	0	
15	0	0	0	0	0	507	513	508	31	0	
0	0	0	0	0	0	505	515	508	31	0	
1	0	0	0	0	2	506	511	507	31	0	
2	0	0	0	0	0	507	512	508	31	0	
3	0	0	0	0	0	505	512	508	31	0	
4	0	0	0	0	0	507	515	510	31	0	
5	0	0	0	0	0	504	514	506	31	0	
6	0	0	0	0	0	504	513	507	31	0	
7	0	0	0	0	0	508	514	510	31	0	
8	0	0	0	0	0	508	511	511	31	0	
9	0	0	0	0	2	504	513	511	31	0	
10	0	0	0	0	0	503	511	511	31	0	
11	0	0	0	0	0	506	510	508	31	0	
12	0	0	0	0	0	504	510	508	31	0	
13	0	0	0	0	0	502	511	512	31	0	
14	0	0	0	0	0	504	511	511	32	0	
15	0	0	0	0	0	504	512	511	31	0	
0	0	0	0	0	0	504	512	509	31	0	
1	0	0	0	0	2	506	512	508	31	0	
2	0	0	0	0	0	507	512	505	31	0	
3	0	0	0	0	0	507	510	506	31	0	
4	0	0	0	0	0	504	511	507	32	0	
5	0	0	0	0	0	504	511	509	32	0	
6	0	0	0	0	0	502	512	510	32	0	
7	0	0	0	0	0	502	513	513	32	0	
8	0	0	0	0	0	504	512	513	31	0	
9	0	0	0	0	2	504	512	514	31	0	
10	0	0	0	0	0	504	511	512	31	0	
11	0	0	0	0	0	504	509	509	31	0	
12	0	0	0	0	0	506	511	508	31	0	
13	0	0	0	0	0	506	510	504	31	0	
14	0	0	0	0	0	504	514	503	31	0	
15	0	0	0	0	0	504	512	507	31	0	
0	0	0	0	0	0	505	511	508	31	0	
1	0	0	0	0	2	505	514	508	31	0	
2	0	0	0	0	0	505	515	511	31	0	
3	0	0	0	0	0	505	515	511	32	0	
4	0	0	0	0	0	505	514	508	32	0	
5	0	0	0	0	0	508	512	511	32	0	
6	0	0	0	0	0	506	513	512	32	0	
7	0	0	0	0	0	509	512	509	31	0	
8	0	0	0	0	0	512	511	510	31	0	
9	0	0	0	0	3	509	511	507	31	0	
10	0	0	0	0	0	505	512	506	31	0	
11	0	0	0	0	0	505	509	507	31	0	
12	0	0	0	0	0	506	511	506	31	0	
13	0	0	0	0	0	506	511	504	31	0	
14	0	0	0	0	0	504	511	503	31	0	
15	0	0	0	0	0	504	511	508	32	0	
0	0	0	0	0	0	504	512	510	31	0	
1	0	0	0	0	2	502	515	512	31	0	
2	0	0	0	0	0	504	512	512	31	0	
3	0	0	0	0	0	503	512	514	31	0	
4	0	0	0	0	0	504	513	513	31	0	
5	0	0	0	0	0	502	513	515	31	0	
6	0	0	0	0	0	501	511	513	31	0	
7	0	0	0	0	0	504	510	513	32	0	
8	0	0	0	0	0	504	512	508	31	0	
9	0	0	0	0	2	506	511	507	31	0	
10	0	0	0	0	0	505	512	501	31	0	
11	0	0	0	0	0	505	512	505	31	0	
12	0	0	0	0	0	505	510	507	31	0	
13	0	0	0	0	0	505	510	512	32	0	
14	0	0	0	0	0	505	511	511	32	0	
15	0	0	0	0	0	505	511	510	31	0	
0	0	0	0	0	0	507	513	511	31	0	
1	0	0	0	0	2	505	513	511	31	0	
2	0	0	0	0	0	504	514	509	31	0	
3	0	0	0	0	0	506	514	511	31	0	
4	0	0	0	0	0	505	512	510	31	0	
5	0	0	0	0	0	506	511	508	31	0	
6	0	0	0	0	0	504	513	509	31	0	
7	0	0	0	0	0	504	515	508	31	0	
8	0	0	0	0	0	505	514	509	31	0	
9	0	0	0	0	2	506	515	510	31	0	
10	0	0	0	0	0	505	512	509	31	0	
11	0	0	0	0	0	509	513	509	31	0	
12	0	0	0	0	0	508	512	507	31	0	
13	0	0	0	0	0	508	513	506	31	0	
14	0	0	0	0	0	505	510	509	31	0	
15	0	0	0	0	0	504	511	510	31	0	
0	0	0	0	0	0	503	508	511	31	0	
1	0	0	0	0	2	505	510	509	31	0	
2	0	0	0	0	0	503	510	510	31	0	
3	0	0	0	0	0	503	511	512	32	0	
4	0	0	0	0	0	504	512	510	32	0	
5	0	0	0	0	0	503	513	509	32	0	
6	0	0	0	0	0	504	512	510	31	0	
7	0	0	0	0	0	504	513	508	31	0	
8	0	0	0	0	0	505	512	509	31	0	
9	0	0	0	0	1	507	513	507	31	0	
10	0	0	0	0	0	507	510	508	31	0	
11	0	0	0	0	0	506	512	510	31	0	
12	0	0	0	0	0	504	512	510	31	0	
13	0	0	0	0	0	505	513	508	31	0	
14	0	0	0	0	0	504	511	510	31	0	
15	0	0	0	0	0	504	511	511	32	0	
0	0	0	0	0	0	502	513	507	31	0	
1	0	0	0	0	1	503	510	507	31	0	
2	0	0	0	0	0	507	513	504	31	0	
3	0	0	0	0	0	508	512	506	31	0	
4	0	0	0	0	0	508	511	505	31	0	
5	0	0	0	0	0	507	512	509	31	0	
6	0	0	0	0	0	507	512	510	31	0	
7	0	0	0	0	0	504	513	513	32	0	
8	0	0	0	0	0	506	512	511	32	0	
9	0	0	0	0	2	508	512	509	32	0	
10	0	0	0	0	0	507	513	512	31	0	
11	0	0	0	0	0	509	511	508	31	0	
12	0	0	0	0	0	508	512	511	31	0	
13	0	0	0	0	0	504	512	513	31	0	
14	0	0	0	0	0	505	513	513	31	0	
15	0	0	0	0	0	506	515	515	31	0	
0	0	0	0	0	0	504	513	510	31	0	
1	0	0	0	0	2	504	514	506	31	0	
2	0	0	0	0	0	506	513	504	31	0	
3	0	0	0	0	0	503	512	504	31	0	
4	0	0	0	0	0	503	512	504	31	0	
5	0	0	0	0	0	503	512	504	31	0	
6	0	0	0	0	0	503	512	506	31	0	
7	0	0	0	0	0	502	513	508	31	0	
8	0	0	0	0	0	504	511	511	32	0	
9	0	0	0	0	3	502	508	510	31	0	
10	0	0	0	0	0	505	512	510	31	0	
11	0	0	0	0	0	503	511	510	31	0	
12	0	0	0	0	0	508	510	510	31	0	
13	0	0	0	0	0	508	513	508	31	0	
14	0	0	0	0	0	506	512	508	31	0	
15	0	0	0	0	0	505	511	507	31	0	
0	0	0	0	0	0	506	512	505	31	0	
1	0	0	0	0	2	505	512	508	31	0	
2	0	0	0	0	0	507	512	510	31	0	
3	0	0	0	0	0	504	514	511	31	0	
4	0	0	0	0	0	505	512	509	31	0	
5	0	0	0	0	0	504	514	510	31	0	
6	0	0	0	0	0	503	512	512	31	0	
7	0	0	0	0	0	504	510	512	32	0	
8	0	0	0	0	0	503	510	511	31	0	
9	0	0	0	0	2	504	512	507	31	0	
10	0	0	0	0	0	504	511	505	32	0	
11	0	0	0	0	0	505	510	510	32	0	
12	0	0	0	0	0	506	512	508	31	0	
13	0	0	0	0	0	504	512	508	31	0	
14	0	0	0	0	0	503	511	510	31	0	
15	0	0	0	0	0	506	511	509	31	0	
0	0	0	0	0	0	504	511	509	31	0	
1	0	0	0	0	2	507	513	513	31	0	
2	0	0	0	0	0	505	513	514	31	0	
3	0	0	0	0	0	507	514	511	31	0	
4	0	0	0	0	0	508	511	509	31	0	
5	0	0	0	0	0	508	512	509	31	0	
6	0	0	0	0	0	506	512	508	31	0	
7	0	0	0	0	0	510	515	508	32	0	
8	0	0	0	0	0	504	513	509	31	0	
9	0	0	0	0	2	503	512	511	31	0	
10	0	0	0	0	0	503	511	510	31	0	
11	0	0	0	0	0	503	512	509	31	0	
12	0	0	0	0	0	507	511	505	31	0	
13	0	0	0	0	0	508	511	508	31	0	
14	0	0	0	0	0	508	513	511	31	0	
15	0	0	0	0	0	504	513	509	31	0	
0	0	0	0	0	0	504	512	511	31	0	
1	0	0	0	0	3	505	513	508	31	0	
2	0	0	0	0	0	504	512	505	31	0	
3	0	0	0	0	0	504	512	502	31	0	
4	0	0	0	0	0	503	514	505	31	0	
5	0	0	0	0	0	505	512	509	31	0	
6	0	0	0	0	0	505	511	509	31	0	
7	0	0	0	0	0	504	512	512	31	0	
8	0	0	0	0	0	504	513	511	31	0	
9	0	0	0	0	2	505	514	512	31	0	
10	0	0	0	0	0	508	511	510	31	0	
11	0	0	0	0	0	508	513	508	31	0	
12	0	0	0	0	0	507	512	508	32	0	
13	0	0	0	0	0	507	510	510	32	0	
14	0	0	0	0	0	506	513	508	31	0	
15	0	0	0	0	0	506	513	509	31	0	
0	0	0	0	0	0	505	512	509	31	0	
1	0	0	0	0	2	503	511	511	31	0	
2	0	0	0	0	0	502	512	512	31	0	
3	0	0	0	0	0	502	512	513	31	0	
4	0	0	0	0	0	503	510	511	31	0	
5	0	0	0	0	0	504	512	510	31	0	
6	0	0	0	0	0	505	511	512	31	0	
7	0	0	0	0	0	506	510	510	32	0	
8	0	0	0	0	0	506	509	508	32	0	
9	0	0	0	0	2	506	512	508	32	0	
10	0	0	0	0	0	504	512	503	32	0	
11	0	0	0	0	0	505	513	506	32	0	
12	0	0	0	0	0	505	514	512	32	0	
13	0	0	0	0	0	505	516	509	31	0	
14	0	0	0	0	0	507	514	508	31	0	
15	0	0	0	0	0	507	514	507	31	0	
0	0	0	0	0	0	505	512	507	31	0	
1	0	0	0	0	1	505	512	505	31	0	
2	0	0	0	0	0	505	511	507	31	0	
3	0	0	0	0	0	506	512	508	31	0	
4	0	0	0	0	0	504	511	509	31	0	
5	0	0	0	0	0	506	511	510	31	0	
6	0	0	0	0	0	508	512	509	32	0	
7	0	0	0	0	0	504	513	508	32	0	
8	0	0	0	0	0	504	511	507	31	0	
9	0	0	0	0	1	503	510	509	31	0	
10	0	0	0	0	0	503	512	508	31	0	
11	0	0	0	0	0	503	513	511	31	0	
12	0	0	0	0	0	502	512	508	31	0	
13	0	0	0	0	0	503	511	509	31	0	
14	0	0	0	0	0	502	510	510	32	0	
15	0	0	0	0	0	505	512	511	31	0	
0	0	0	0	0	0	502	512	512	31	0	
1	0	0	0	0	1	503	510	511	31	0	
2	0	0	0	0	0	505	510	511	31	0	
3	0	0	0	0	0	505	511	510	32	0	
4	0	0	0	0	0	506	510	512	31	0	
5	0	0	0	0	0	506	513	511	31	0	
6	0	0	0	0	0	509	514	507	31	0	
7	0	0	0	0	0	510	515	508	32	0	
8	0	0	0	0	0	507	511	508	31	0	
9	0	0	0	0	2	508	509	507	31	0	
10	0	0	0	0	0	504	512	505	31	0	
11	0	0	0	0	0	505	515	509	31	0	
12	0	0	0	0	0	505	512	511	31	0	
13	0	0	0	0	0	504	511	509	31	0	
14	0	0	0	0	0	505	511	513	32	0	
15	0	0	0	0	0	504	512	511	32	0	
0	0	0	0	0	0	505	512	511	32	0	
1	0	0	0	0	2	505	512	508	31	0	
2	0	0	0	0	0	505	510	508	31	0	
3	0	0	0	0	0	506	513	509	31	0	
4	0	0	0	0	0	505	512	506	31	0	
5	0	0	0	0	0	508	512	509	31	0	
6	0	0	0	0	0	505	512	507	31	0	
7	0	0	0	0	0	504	514	505	31	0	
8	0	0	0	0	0	505	512	506	31	0	
9	0	0	0	0	2	504	509	508	31	0	
10	0	0	0	0	0	507	512	505	31	0	
11	0	0	0	0	0	509	512	509	31	0	
12	0	0	0	0	0	504	512	510	31	0	
13	0	0	0	0	0	506	514	507	31	0	
14	0	0	0	0	0	507	513	509	32	0	
15	0	0	0	0	0	504	511	511	32	0	
0	0	0	0	0	0	503	512	510	31	0	
1	0	0	0	0	3	505	514	510	32	0	
2	0	0	0	0	0	504	512	510	31	0	
3	0	0	0	0	0	503	513	510	31	0	
4	0	0	0	0	0	504	512	509	31	0	
5	0	0	0	0	0	506	510	511	31	0	
6	0	0	0	0	0	505	511	507	31	0	
7	0	0	0	0	0	506	513	508	31	0	
8	0	0	0	0	0	509	511	512	31	0	
9	0	0	0	0	2	505	511	511	32	0	
10	0	0	0	0	0	506	513	510	31	0	
11	0	0	0	0	0	505	512	512	31	0	
12	0	0	0	0	0	504	511	509	31	0	
13	0	0	0	0	0	504	509	509	32	0	
14	0	0	0	0	0	504	510	510	31	0	
15	0	0	0	0	0	504	511	512	31	0	
0	0	0	0	0	0	505	510	511	31	0	
1	0	0	0	0	3	504	512	512	31	0	
2	0	0	0	0	0	504	514	511	31	0	
3	0	0	0	0	0	502	511	511	31	0	
4	0	0	0	0	0	505	513	510	31	0	
5	0	0	0	0	0	504	514	510	31	0	
6	0	0	0	0	0	508	514	509	31	0	
7	0	0	0	0	0	508	514	507	31	0	
8	0	0	0	0	0	505	512	504	31	0	
9	0	0	0	0	2	506	513	508	31	0	
10	0	0	0	0	0	503	512	510	31	0	
11	0	0	0	0	0	504	513	509	31	0	
12	0	0	0	0	0	504	513	507	31	0	
13	0	0	0	0	0	505	511	507	31	0	
14	0	0	0	0	0	503	510	506	31	0	
15	0	0	0	0	0	503	508	508	31	0	
0	0	0	0	0	0	504	513	508	31	0	
1	0	0	0	0	2	506	510	507	31	0	
2	0	0	0	0	0	505	510	510	31	0	
3	0	0	0	0	0	506	510	509	31	0	
4	0	0	0	0	0	506	515	510	31	0	
5	0	0	0	0	0	508	512	514	31	0	
6	0	0	0	0	0	505	513	511	31	0	
7	0	0	0	0	0	505	511	509	31	0	
8	0	0	0	0	0	507	511	509	31	0	
9	0	0	0	0	3	504	514	509	32	0	
10	0	0	0	0	0	504	514	511	32	0	
11	0	0	0	0	0	504	512	509	32	0	
12	0	0	0	0	0	503	512	508	31	0	
13	0	0	0	0	0	504	514	509	31	0	
14	0	0	0	0	0	505	512	511	32	0	
15	0	0	0	0	0	506	514	512	32	0	
0	0	0	0	0	0	507	512	512	31	0	
1	0	0	0	0	2	506	512	514	31	0	
2	0	0	0	0	0	505	511	511	31	0	
3	0	0	0	0	0	506	510	511	31	0	
4	0	0	0	0	0	506	511	511	31	0	
5	0	0	0	0	0	505	510	506	31	0	
6	0	0	0	0	0	507	511	504	31	0	
7	0	0	0	0	0	506	511	505	31	0	
8	0	0	0	0	0	505	515	500	31	0	
9	0	0	0	0	3	505	513	502	31	0	
10	0	0	0	0	0	502	515	504	31	0	
11	0	0	0	0	0	504	513	504	31	0	
12	0	0	0	0	0	506	511	505	31	0	
13	0	0	0	0	0	505	512	508	32	0	
14	0	0	0	0	0	507	511	510	32	0	
15	0	0	0	0	0	504	511	511	32	0	
0	0	0	0	0	0	504	510	511	31	0	
1	0	0	0	0	1	505	513	510	31	0	
2	0	0	0	0	0	505	513	509	31	0	
3	0	0	0	0	0	506	514	511	31	0	
4	0	0	0	0	0	504	512	510	31	0	
5	0	0	0	0	0	504	511	516	32	0	
6	0	0	0	0	0	505	513	518	32	0	
7	0	0	0	0	0	504	512	518	32	0	
8	0	0	0	0	0	504	510	515	32	0	
9	0	0	0	0	1	504	515	512	32	0	
10	0	0	0	0	0	505	513	509	31	0	
11	0	0	0	0	0	506	513	507	31	0	
12	0	0	0	0	0	504	511	502	31	0	
13	0	0	0	0	0	507	513	500	31	0	
14	0	0	0	0	0	504	513	504	31	0	
15	0	0	0	0	0	505	511	508	31	0	
0	0	0	0	0	0	506	510	511	31	0	
1	0	0	0	0	1	507	510	511	31	0	
2	0	0	0	0	0	505	510	510	32	0	
3	0	0	0	0	0	505	508	508	31	0	
4	0	0	0	0	0	506	511	507	31	0	
5	0	0	0	0	0	507	512	505	31	0	
6	0	0	0	0	0	504	513	507	31	0	
7	0	0	0	0	0	506	515	510	31	0	
8	0	0	0	0	0	505	513	509	31	0	
9	0	0	0	0	2	504	513	512	31	0	
10	0	0	0	0	0	504	511	511	31	0	
11	0	0	0	0	0	506	514	508	32	0	
12	0	0	0	0	0	504	514	511	31	0	
13	0	0	0	0	0	504	513	510	31	0	
14	0	0	0	0	0	506	514	512	31	0	
15	0	0	0	0	0	504	512	510	31	0	
0	0	0	0	0	0	504	511	510	31	0	
1	0	0	0	0	3	502	511	512	31	0	
2	0	0	0	0	0	504	509	511	31	0	
3	0	0	0	0	0	504	508	511	31	0	
4	0	0	0	0	0	504	512	514	31	0	
5	0	0	0	0	0	505	510	511	31	0	
6	0	0	0	0	0	507	513	509	31	0	
7	0	0	0	0	0	508	515	507	31	0	
8	0	0	0	0	0	506	511	508	31	0	
9	0	0	0	0	3	506	512	509	31	0	
10	0	0	0	0	0	507	511	512	31	0	
11	0	0	0	0	0	507	512	509	31	0	
12	0	0	0	0	0	504	510	509	31	0	
13	0	0	0	0	0	504	512	507	31	0	
14	0	0	0	0	0	504	512	507	31	0	
15	0	0	0	0	0	506	512	508	31	0	
0	0	0	0	0	0	503	513	510	31	0	
1	0	0	0	0	2	503	512	508	31	0	
2	0	0	0	0	0	505	512	508	31	0	
3	0	0	0	0	0	505	511	509	32	0	
4	0	0	0	0	0	507	512	508	31	0	
5	0	0	0	0	0	506	513	507	31	0	
6	0	0	0	0	0	505	513	506	31	0	
7	0	0	0	0	0	507	510	508	31	0	
8	0	0	0	0	0	503	509	507	31	0	
9	0	0	0	0	3	503	511	507	31	0	
10	0	0	0	0	0	504	509	505	31	0	
11	0	0	0	0	0	503	506	506	31	0	
12	0	0	0	0	0	504	509	510	31	0	
13	0	0	0	0	0	504	509	510	31	0	
14	0	0	0	0	0	504	508	509	31	0	
15	0	0	0	0	0	504	510	510	31	0	
0	0	0	0	0	0	505	513	509	31	0	
1	0	0	0	0	2	506	513	510	31	0	
2	0	0	0	0	0	506	516	510	31	0	
3	0	0	0	0	0	505	515	510	31	0	
4	0	0	0	0	0	505	514	511	31	0	
5	0	0	0	0	0	505	513	509	31	0	
6	0	0	0	0	0	505	514	510	31	0	
7	0	0	0	0	0	504	515	509	31	0	
8	0	0	0	0	0	507	514	511	31	0	
9	0	0	0	0	2	508	513	511	31	0	
10	0	0	0	0	0	505	512	510	31	0	
11	0	0	0	0	0	505	513	510	31	0	
12	0	0	0	0	0	505	513	510	31	0	
13	0	0	0	0	0	504	512	508	31	0	
14	0	0	0	0	0	507	511	508	31	0	
15	0	0	0	0	0	505	512	509	32	0	
0	0	0	0	0	0	504	511	508	32	0	
1	0	0	0	0	2	504	511	509	32	0	
2	0	0	0	0	0	504	513	511	32	0	
3	0	0	0	0	0	504	512	511	32	0	
4	0	0	0	0	0	506	512	509	32	0	
5	0	0	0	0	0	505	510	508	32	0	
6	0	0	0	0	0	505	512	508	32	0	
7	0	0	0	0	0	504	513	506	31	0	
8	0	0	0	0	0	505	512	509	31	0	
9	0	0	0	0	2	505	513	510	31	0	
10	0	0	0	0	0	504	515	511	31	0	
11	0	0	0	0	0	507	514	509	31	0	
12	0	0	0	0	0	508	511	509	31	0	
13	0	0	0	0	0	508	513	511	31	0	
14	0	0	0	0	0	505	513	511	31	0	
15	0	0	0	0	0	504	512	513	31	0	
0	0	0	0	0	0	504	512	513	31	0	
1	0	0	0	0	3	505	514	511	31	0	
2	0	0	0	0	0	508	514	509	31	0	
3	0	0	0	0	0	508	512	508	31	0	
4	0	0	0	0	0	506	512	509	31	0	
5	0	0	0	0	0	504	512	507	31	0	
6	0	0	0	0	0	505	512	509	32	0	
7	0	0	0	0	0	505	512	511	32	0	
8	0	0	0	0	0	504	510	510	32	0	
9	0	0	0	0	1	502	510	510	32	0	
10	0	0	0	0	0	503	510	504	31	0	
11	0	0	0	0	0	505	511	505	31	0	
12	0	0	0	0	0	504	512	504	31	0	
13	0	0	0	0	0	506	512	505	31	0	
14	0	0	0	0	0	505	511	505	31	0	
15	0	0	0	0	0	504	513	508	31	0	
0	0	0	0	0	0	504	512	511	31	0	
1	0	0	0	0	1	507	510	507	31	0	
2	0	0	0	0	0	505	514	508	31	0	
3	0	0	0	0	0	507	515	512	32	0	
4	0	0	0	0	0	504	511	514	31	0	
5	0	0	0	0	0	503	513	510	31	0	
6	0	0	0	0	0	506	511	510	32	0	
7	0	0	0	0	0	507	511	509	32	0	
8	0	0	0	0	0	505	512	508	32	0	
9	0	0	0	0	1	507	513	512	32	0	
10	0	0	0	0	0	505	510	513	32	0	
11	0	0	0	0	0	506	513	511	31	0	
12	0	0	0	0	0	507	512	511	32	0	
13	0	0	0	0	0	504	510	510	31	0	
14	0	0	0	0	0	507	511	510	31	0	
15	0	0	0	0	0	505	511	510	31	0	
0	0	0	0	0	0	505	511	507	31	0	
1	0	0	0	0	2	507	514	504	31	0	
2	0	0	0	0	0	504	511	503	31	0	
3	0	0	0	0	0	504	513	504	31	0	
4	0	0	0	0	0	505	514	504	31	0	
5	0	0	0	0	0	506	514	505	32	0	
6	0	0	0	0	0	505	510	507	31	0	
7	0	0	0	0	0	504	511	509	31	0	
8	0	0	0	0	0	502	510	510	31	0	
9	0	0	0	0	2	503	511	510	31	0	
10	0	0	0	0	0	503	511	511	31	0	
11	0	0	0	0	0	504	511	511	31	0	
12	0	0	0	0	0	505	510	510	31	0	
13	0	0	0	0	0	505	510	510	31	0	
14	0	0	0	0	0	506	510	511	31	0	
15	0	0	0	0	0	505	512	509	31	0	
0	0	0	0	0	0	508	512	511	31	0	
1	0	0	0	0	2	506	511	513	31	0	
2	0	0	0	0	0	507	512	511	31	0	
3	0	0	0	0	0	506	512	510	31	0	
4	0	0	0	0	0	504	514	510	31	0	
5	0	0	0	0	0	505	513	510	31	0	
6	0	0	0	0	0	504	513	510	31	0	
7	0	0	0	0	0	505	512	509	32	0	
8	0	0	0	0	0	503	513	504	31	0	
9	0	0	0	0	2	505	512	507	31	0	
10	0	0	0	0	0	504	511	509	31	0	
11	0	0	0	0	0	503	513	508	31	0	
12	0	0	0	0	0	504	511	512	31	0	
13	0	0	0	0	0	505	511	508	31	0	
14	0	0	0	0	0	508	513	508	31	0	
15	0	0	0	0	0	504	512	507	31	0	
0	0	0	0	0	0	504	512	508	31	0	
1	0	0	0	0	2	504	510	508	31	0	
2	0	0	0	0	0	505	511	509	31	0	
3	0	0	0	0	0	503	511	512	31	0	
4	0	0	0	0	0	506	512	510	31	0	
5	0	0	0	0	0	506	511	509	31	0	
6	0	0	0	0	0	507	514	511	31	0	
7	0	0	0	0	0	508	511	509	31	0	
8	0	0	0	0	0	507	514	509	31	0	
9	0	0	0	0	3	505	513	509	31	0	
10	0	0	0	0	0	506	512	510	31	0	
11	0	0	0	0	0	505	514	511	31	0	
12	0	0	0	0	0	504	516	510	31	0	
13	0	0	0	0	0	507	515	511	31	0	
14	0	0	0	0	0	505	515	509	31	0	
15	0	0	0	0	0	505	513	510	31	0	
0	0	0	0	0	0	505	513	511	31	0	
1	0	0	0	0	2	503	512	510	31	0	
2	0	0	0	0	0	506	510	510	31	0	
3	0	0	0	0	0	505	508	510	31	0	
4	0	0	0	0	0	505	511	510	31	0	
5	0	0	0	0	0	505	512	506	32	0	
6	0	0	0	0	0	503	512	508	32	0	
7	0	0	0	0	0	505	510	508	31	0	
8	0	0	0	0	0	504	512	506	31	0	
9	0	0	0	0	2	504	515	507	31	0	
10	0	0	0	0	0	504	515	509	31	0	
11	0	0	0	0	0	505	513	511	32	0	
12	0	0	0	0	0	508	513	508	31	0	
13	0	0	0	0	0	507	511	507	31	0	
14	0	0	0	0	0	506	512	508	31	0	
15	0	0	0	0	0	504	511	509	31	0	
0	0	0	0	0	0	500	509	509	31	0	
1	0	0	0	0	2	501	509	512	31	0	
2	0	0	0	0	0	504	512	510	31	0	
3	0	0	0	0	0	506	511	511	31	0	
4	0	0	0	0	0	507	513	512	31	0	
5	0	0	0	0	0	506	514	510	31	0	
6	0	0	0	0	0	507	514	507	31	0	
7	0	0	0	0	0	509	515	511	31	0	
8	0	0	0	0	0	508	514	508	31	0	
9	0	0	0	0	2	507	511	505	31	0	
10	0	0	0	0	0	504	512	507	31	0	
11	0	0	0	0	0	505	510	507	31	0	
12	0	0	0	0	0	505	511	510	32	0	
13	0	0	0	0	0	504	513	510	32	0	
14	0	0	0	0	0	503	512	509	32	0	
15	0	0	0	0	0	505	512	511	32	0	
0	0	0	0	0	0	504	512	510	31	0	
1	0	0	0	0	2	504	511	508	31	0	
2	0	0	0	0	0	504	511	511	31	0	
3	0	0	0	0	0	505	510	511	32	0	
4	0	0	0	0	0	508	511	507	31	0	
5	0	0	0	0	0	505	511	507	31	0	
6	0	0	0	0	0	505	511	505	31	0	
7	0	0	0	0	0	504	513	507	31	0	
8	0	0	0	0	0	506	512	508	31	0	
9	0	0	0	0	1	504	510	507	31	0	
10	0	0	0	0	0	504	511	509	31	0	
11	0	0	0	0	0	504	511	511	31	0	
12	0	0	0	0	0	504	512	508	31	0	
13	0	0	0	0	0	504	511	508	31	0	
14	0	0	0	0	0	505	512	510	31	0	
15	0	0	0	0	0	506	512	507	31	0	
0	0	0	0	0	0	504	512	507	31	0	
1	0	0	0	0	1	505	513	507	31	0	
2	0	0	0	0	0	504	513	508	31	0	
3	0	0	0	0	0	509	511	513	31	0	
4	0	0	0	0	0	507	516	512	31	0	
5	0	0	0	0	0	506	515	515	31	0	
6	0	0	0	0	0	505	512	513	31	0	
7	0	0	0	0	0	504	511	512	32	0	
8	0	0	0	0	0	505	510	512	32	0	
9	0	0	0	0	1	508	510	511	32	0	
10	0	0	0	0	0	506	510	511	32	0	
11	0	0	0	0	0	505	509	510	32	0	
12	0	0	0	0	0	504	512	508	32	0	
13	0	0	0	0	0	504	514	508	31	0	
14	0	0	0	0	0	504	515	511	31	0	
15	0	0	0	0	0	505	515	509	31	0	
0	0	0	0	0	0	504	513	509	31	0	
1	0	0	0	0	2	506	514	507	31	0	
2	0	0	0	0	0	507	513	507	31	0	
3	0	0	0	0	0	507	512	508	31	0	
4	0	0	0	0	0	505	515	509	31	0	
5	0	0	0	0	0	506	510	507	31	0	
6	0	0	0	0	0	508	510	508	31	0	
7	0	0	0	0	0	506	511	512	31	0	
8	0	0	0	0	0	507	512	509	31	0	
9	0	0	0	0	2	504	513	508	31	0	
10	0	0	0	0	0	504	512	509	31	0	
11	0	0	0	0	0	505	510	511	31	0	
12	0	0	0	0	0	505	508	508	31	0	
13	0	0	0	0	0	503	510	508	31	0	
14	0	0	0	0	0	504	512	510	31	0	
15	0	0	0	0	0	503	511	507	31	0	
0	0	0	0	0	0	505	510	512	31	0	
1	0	0	0	0	3	505	512	509	31	0	
2	0	0	0	0	0	508	513	508	32	0	
3	0	0	0	0	0	507	513	508	31	0	
4	0	0	0	0	0	505	515	507	32	0	
5	0	0	0	0	0	505	512	505	31	0	
6	0	0	0	0	0	504	512	504	32	0	
7	0	0	0	0	0	503	511	504	31	0	
8	0	0	0	0	0	504	513	508	31	0	
9	0	0	0	0	2	504	511	510	31	0	
10	0	0	0	0	0	504	509	508	31	0	
11	0	0	0	0	0	505	511	508	31	0	
12	0	0	0	0	0	505	515	510	31	0	
13	0	0	0	0	0	507	513	511	31	0	
14	0	0	0	0	0	507	511	510	31	0	
15	0	0	0	0	0	504	511	510	31	0	
0	0	0	0	0	0	504	511	512	31	0	
1	0	0	0	0	2	504	511	512	31	0	
2	0	0	0	0	0	504	514	513	31	0	
3	0	0	0	0	0	507	513	511	31	0	
4	0	0	0	0	0	506	512	511	31	0	
5	0	0	0	0	0	504	510	509	31	0	
6	0	0	0	0	0	505	513	509	31	0	
7	0	0	0	0	0	505	508	508	32	0	
8	0	0	0	0	0	507	510	508	31	0	
9	0	0	0	0	2	507	510	509	31	0	
10	0	0	0	0	0	506	512	511	31	0	
11	0	0	0	0	0	508	511	510	31	0	
12	0	0	0	0	0	507	514	509	31	0	
13	0	0	0	0	0	506	514	509	31	0	
14	0	0	0	0	0	507	512	508	31	0	
15	0	0	0	0	0	505	512	507	31	0	
0	0	0	0	0	0	505	513	506	31	0	
1	0	0	0	0	2	503	512	511	31	0	
2	0	0	0	0	0	503	516	512	31	0	
3	0	0	0	0	0	506	514	508	31	0	
4	0	0	0	0	0	504	514	508	32	0	
5	0	0	0	0	0	503	514	505	31	0	
6	0	0	0	0	0	505	514	506	31	0	
7	0	0	0	0	0	503	513	506	31	0	
8	0	0	0	0	0	505	510	508	31	0	
9	0	0	0	0	2	504	511	508	31	0	
10	0	0	0	0	0	504	510	510	31	0	
11	0	0	0	0	0	505	512	512	32	0	
12	0	0	0	0	0	504	509	512	31	0	
13	0	0	0	0	0	505	509	511	32	0	
14	0	0	0	0	0	507	511	510	31	0	
15	0	0	0	0	0	507	513	509	31	0	
0	0	0	0	0	0	507	512	510	31	0	
1	0	0	0	0	2	508	512	508	31	0	
2	0	0	0	0	0	506	513	508	31	0	
3	0	0	0	0	0	508	515	504	31	0	
4	0	0	0	0	0	508	514	508	31	0	
5	0	0	0	0	0	505	511	508	31	0	
6	0	0	0	0	0	505	512	505	31	0	
7	0	0	0	0	0	504	512	513	31	0	
8	0	0	0	0	0	504	512	509	31	0	
9	0	0	0	0	2	504	514	509	31	0	
10	0	0	0	0	0	504	513	511	31	0	
11	0	0	0	0	0	504	512	510	31	0	
12	0	0	0	0	0	504	511	510	31	0	
13	0	0	0	0	0	503	510	511	31	0	
14	0	0	0	0	0	501	511	511	31	0	
15	0	0	0	0	0	502	511	511	31	0	
0	0	0	0	0	0	504	512	511	31	0	
1	0	0	0	0	2	508	512	510	32	0	
2	0	0	0	0	0	507	512	511	31	0	
3	0	0	0	0	0	507	513	513	31	0	
4	0	0	0	0	0	506	510	511	31	0	
5	0	0	0	0	0	506	510	509	31	0	
6	0	0	0	0	0	507	512	509	31	0	
7	0	0	0	0	0	503	510	507	31	0	
8	0	0	0	0	0	504	509	505	31	0	
9	0	0	0	0	1	502	511	506	31	0	
10	0	0	0	0	0	504	512	507	31	0	
11	0	0	0	0	0	504	511	508	31	0	
12	0	0	0	0	0	505	514	510	31	0	
13	0	0	0	0	0	506	514	508	31	0	
14	0	0	0	0	0	507	515	509	31	0	
15	0	0	0	0	0	505	513	507	31	0	
0	0	0	0	0	0	505	512	505	31	0	
1	0	0	0	0	1	504	513	508	31	0	
2	0	0	0	0	0	505	513	507	31	0	
3	0	0	0	0	0	505	513	511	31	0	
4	0	0	0	0	0	505	511	511	31	0	
5	0	0	0	0	0	505	511	511	32	0	
6	0	0	0	0	0	506	514	508	31	0	
7	0	0	0	0	0	506	513	505	31	0	
8	0	0	0	0	0	505	510	505	31	0	
9	0	0	0	0	1	505	511	506	31	0	
10	0	0	0	0	0	503	513	509	31	0	
11	0	0	0	0	0	504	510	511	31	0	
12	0	0	0	0	0	503	511	510	32	0	
13	0	0	0	0	0	506	510	512	32	0	
14	0	0	0	0	0	507	511	511	32	0	
15	0	0	0	0	0	505	511	511	31	0	
0	0	0	0	0	0	506	513	509	31	0	
1	0	0	0	0	2	506	514	512	31	0	
2	0	0	0	0	0	507	511	512	31	0	
3	0	0	0	0	0	506	513	510	31	0	
4	0	0	0	0	0	505	512	512	31	0	
5	0	0	0	0	0	505	513	510	31	0	
6	0	0	0	0	0	505	513	508	32	0	
7	0	0	0	0	0	505	513	509	32	0	
8	0	0	0	0	0	504	514	507	32	0	
9	0	0	0	0	3	505	514	509	32	0	
10	0	0	0	0	0	505	514	508	32	0	
11	0	0	0	0	0	505	513	507	31	0	
12	0	0	0	0	0	506	513	507	31	0	
13	0	0	0	0	0	504	512	510	31	0	
14	0	0	0	0	0	502	510	512	31	0	
15	0	0	0	0	0	502	511	512	31	0	
0	0	0	0	0	0	504	510	510	31	0	
1	0	0	0	0	2	507	511	512	31	0	
2	0	0	0	0	0	505	513	509	31	0	
3	0	0	0	0	0	506	511	512	31	0	
4	0	0	0	0	0	505	512	511	32	0	
5	0	0	0	0	0	505	513	510	32	0	
6	0	0	0	0	0	506	511	508	31	0	
7	0	0	0	0	0	505	512	507	31	0	
8	0	0	0	0	0	503	511	505	31	0	
9	0	0	0	0	2	505	512	507	31	0	
10	0	0	0	0	0	507	511	507	31	0	
11	0	0	0	0	0	505	513	508	31	0	
12	0	0	0	0	0	505	512	510	31	0	
13	0	0	0	0	0	504	511	513	31	0	
14	0	0	0	0	0	506	512	512	31	0	
15	0	0	0	0	0	505	511	511	31	0	
0	0	0	0	0	0	506	511	510	31	0	
1	0	0	0	0	2	506	512	505	31	0	
2	0	0	0	0	0	505	512	504	31	0	
3	0	0	0	0	0	506	511	502	31	0	
4	0	0	0	0	0	505	511	501	31	0	
5	0	0	0	0	0	504	513	503	31	0	
6	0	0	0	0	0	505	513	506	31	0	
7	0	0	0	0	0	505	513	511	32	0	
8	0	0	0	0	0	507	512	513	32	0	
9	0	0	0	0	2	505	512	513	31	0	
10	0	0	0	0	0	505	512	514	31	0	
11	0	0	0	0	0	505	511	514	31	0	
12	0	0	0	0	0	505	512	511	31	0	
13	0	0	0	0	0	505	510	509	31	0	
14	0	0	0	0	0	504	512	507	31	0	
15	0	0	0	0	0	504	512	510	31	0	
0	0	0	0	0	0	503	511	508	31	0	
1	0	0	0	0	2	506	510	508	31	0	
2	0	0	0	0	0	506	512	511	31	0	
3	0	0	0	0	0	505	512	512	31	0	
4	0	0	0	0	0	502	513	512	32	0	
5	0	0	0	0	0	504	513	511	32	0	
6	0	0	0	0	0	503	512	512	32	0	
7	0	0	0	0	0	504	513	511	31	0	
8	0	0	0	0	0	505	512	505	31	0	
9	0	0	0	0	2	505	512	508	31	0	
10	0	0	0	0	0	504	512	510	31	0	
11	0	0	0	0	0	504	512	510	31	0	
12	0	0	0	0	0	505	511	511	31	0	
13	0	0	0	0	0	507	512	509	31	0	
14	0	0	0	0	0	506	512	510	31	0	
15	0	0	0	0	0	505	512	509	32	0	
0	0	0	0	0	0	504	512	508	31	0	
1	0	0	0	0	3	507	513	510	31	0	
2	0	0	0	0	0	508	512	509	31	0	
3	0	0	0	0	0	506	511	512	31	0	
4	0	0	0	0	0	508	510	510	31	0	
5	0	0	0	0	0	507	510	507	31	0	
6	0	0	0	0	0	507	513	507	31	0	
7	0	0	0	0	0	508	512	508	31	0	
8	0	0	0	0	0	508	514	507	31	0	
9	0	0	0	0	2	506	513	506	31	0	
10	0	0	0	0	0	505	512	509	31	0	
11	0	0	0	0	0	503	512	510	31	0	
12	0	0	0	0	0	503	512	511	31	0	
13	0	0	0	0	0	502	512	509	32	0	
14	0	0	0	0	0	504	512	512	32	0	
15	0	0	0	0	0	504	515	509	31	0	
0	0	0	0	0	0	504	512	508	31	0	
1	0	0	0	0	1	504	511	507	31	0	
2	0	0	0	0	0	504	511	508	31	0	
3	0	0	0	0	0	505	511	511	31	0	
4	0	0	0	0	0	505	511	508	31	0	
5	0	0	0	0	0	504	511	507	31	0	
6	0	0	0	0	0	505	513	507	31	0	
7	0	0	0	0	0	505	511	504	32	0	
8	0	0	0	0	0	504	512	510	31	0	
9	0	0	0	0	1	505	512	514	31	0	
10	0	0	0	0	0	505	513	512	31	0	
11	0	0	0	0	0	505	513	512	31	0	
12	0	0	0	0	0	505	511	509	31	0	
13	0	0	0	0	0	507	511	509	31	0	
14	0	0	0	0	0	504	512	510	31	0	
15	0	0	0	0	0	505	510	508	31	0	
0	0	0	0	0	0	506	510	508	31	0	
1	0	0	0	0	1	506	510	509	31	0	
2	0	0	0	0	0	505	512	507	31	0	
3	0	0	0	0	0	507	511	510	31	0	
4	0	0	0	0	0	508	512	508	31	0	
5	0	0	0	0	0	505	511	507	31	0	
6	0	0	0	0	0	505	513	510	31	0	
7	0	0	0	0	0	504	514	512	31	0	
8	0	0	0	0	0	505	513	512	31	0	
9	0	0	0	0	3	504	513	511	31	0	
10	0	0	0	0	0	505	512	509	31	0	
11	0	0	0	0	0	505	513	507	31	0	
12	0	0	0	0	0	505	512	508	31	0	
13	0	0	0	0	0	507	510	508	31	0	
14	0	0	0	0	0	504	511	508	31	0	
15	0	0	0	0	0	503	512	510	31	0	
0	0	0	0	0	0	503	508	511	32	0	
1	0	0	0	0	2	504	509	512	32	0	
2	0	0	0	0	0	506	512	511	31	0	
3	0	0	0	0	0	505	515	508	31	0	
4	0	0	0	0	0	507	514	509	31	0	
5	0	0	0	0	0	507	515	508	31	0	
6	0	0	0	0	0	508	515	504	31	0	
7	0	0	0	0	0	508	515	510	31	0	
8	0	0	0	0	0	507	515	508	31	0	
9	0	0	0	0	2	507	515	511	31	0	
10	0	0	0	0	0	504	512	510	31	0	
11	0	0	0	0	0	504	511	512	31	0	
12	0	0	0	0	0	504	513	511	31	0	
13	0	0	0	0	0	503	510	511	32	0	
14	0	0	0	0	0	504	510	512	31	0	
15	0	0	0	0	0	504	510	508	31	0	
0	0	0	0	0	0	505	512	510	31	0	
1	0	0	0	0	2	504	512	510	31	0	
2	0	0	0	0	0	506	511	508	31	0	
3	0	0	0	0	0	507	509	510	31	0	
4	0	0	0	0	0	507	510	509	31	0	
5	0	0	0	0	0	505	510	509	31	0	
6	0	0	0	0	0	506	512	510	31	0	
7	0	0	0	0	0	505	510	508	31	0	
8	0	0	0	0	0	507	510	508	31	0	
9	0	0	0	0	3	506	508	509	31	0	
10	0	0	0	0	0	504	512	508	31	0	
11	0	0	0	0	0	504	513	508	31	0	
12	0	0	0	0	0	504	512	506	31	0	
13	0	0	0	0	0	506	515	504	31	0	
14	0	0	0	0	0	504	514	506	31	0	
15	0	0	0	0	0	505	513	508	31	0	
0	0	0	0	0	0	505	515	510	31	0	
1	0	0	0	0	2	505	513	512	31	0	
2	0	0	0	0	0	503	511	515	32	0	
3	0	0	0	0	0	505	511	509	31	0	
4	0	0	0	0	0	504	511	507	31	0	
5	0	0	0	0	0	505	512	506	31	0	
6	0	0	0	0	0	504	511	507	31	0	
7	0	0	0	0	0	504	512	506	31	0	
8	0	0	0	0	0	504	511	508	31	0	
9	0	0	0	0	2	504	512	509	31	0	
10	0	0	0	0	0	505	511	515	31	0	
11	0	0	0	0	0	505	510	513	32	0	
12	0	0	0	0	0	505	511	510	31	0	
13	0	0	0	0	0	507	515	509	31	0	
14	0	0	0	0	0	509	516	508	31	0	
15	0	0	0	0	0	507	515	511	31	0	
0	0	0	0	0	0	505	512	512	31	0	
1	0	0	0	0	2	505	513	510	31	0	
2	0	0	0	0	0	504	515	512	31	0	
3	0	0	0	0	0	504	515	510	31	0	
4	0	0	0	0	0	504	509	508	31	0	
5	0	0	0	0	0	504	509	508	31	0	
6	0	0	0	0	0	505	508	508	32	0	
7	0	0	0	0	0	502	511	512	32	0	
8	0	0	0	0	0	504	509	511	32	0	
9	0	0	0	0	2	507	514	504	31	0	
10	0	0	0	0	0	508	515	502	31	0	
11	0	0	0	0	0	508	515	503	31	0	
12	0	0	0	0	0	505	512	505	31	0	
13	0	0	0	0	0	507	515	504	31	0	
14	0	0	0	0	0	507	512	507	31	0	
15	0	0	0	0	0	506	513	510	31	0	
0	0	0	0	0	0	507	512	507	31	0	
1	0	0	0	0	2	504	513	510	31	0	
2	0	0	0	0	0	500	508	511	31	0	
3	0	0	0	0	0	499	506	514	32	0	
4	0	0	0	0	0	497	506	511	32	0	
5	0	0	0	0	0	499	509	514	32	0	
6	0	0	0	0	0	502	512	512	32	0	
7	0	0	0	0	0	504	515	511	31	0	
8	0	0	0	0	0	506	517	512	32	0	
9	0	0	0	0	3	506	513	508	31	0	
10	0	0	0	0	0	507	514	507	31	0	
11	0	0	0	0	0	508	513	512	31	0	
12	0	0	0	0	0	505	513	514	31	0	
13	0	0	0	0	0	508	511	513	32	0	
14	0	0	0	0	0	513	512	510	31	0	
15	0	0	0	0	0	511	511	508	32	0	
0	0	0	0	0	0	508	509	505	32	0	
1	0	0	0	0	1	505	512	504	32	0	
2	0	0	0	0	0	504	513	509	31	0	
3	0	0	0	0	0	503	516	512	31	0	
4	0	0	0	0	0	500	515	508	31	0	
5	0	0	0	0	0	499	514	509	31	0	
6	0	0	0	0	0	499	513	508	31	0	
7	0	0	0	0	0	502	511	508	31	0	
8	0	0	0	0	0	504	512	514	31	0	
9	0	0	0	0	1	507	512	515	31	0	
10	0	0	0	0	0	507	511	512	31	0	
11	0	0	0	0	0	505	508	507	31	0	
12	0	0	0	0	0	504	506	506	31	0	
13	0	0	0	0	0	504	505	506	31	0	
14	0	0	0	0	0	509	508	509	31	0	
15	0	0	0	0	0	510	509	507	31	0	
0	0	0	0	0	0	507	514	509	31	0	
1	0	0	0	0	1	508	516	511	31	0	
2	0	0	0	0	0	508	519	508	31	0	
3	0	0	0	0	0	508	519	500	31	0	
4	0	0	0	0	0	510	516	503	31	0	
5	0	0	0	0	0	509	513	506	31	0	
6	0	0	0	0	0	511	516	502	31	0	
7	0	0	0	0	0	505	512	503	31	0	
8	0	0	0	0	0	502	512	508	31	0	
9	0	0	0	0	2	502	512	513	31	0	
10	0	0	0	0	0	500	510	515	31	0	
11	0	0	0	0	0	499	512	517	32	0	
12	0	0	0	0	0	500	512	513	31	0	
13	0	0	0	0	0	504	512	520	31	0	
14	0	0	0	0	0	504	509	517	32	0	
15	0	0	0	0	0	504	508	516	32	0	
0	0	0	0	0	0	503	508	513	32	0	
1	0	0	0	0	3	506	506	505	32	0	
2	0	0	0	0	0	510	510	496	31	0	
3	0	0	0	0	0	505	515	501	31	0	
4	0	0	0	0	0	500	514	514	32	0	
5	0	0	0	0	0	498	510	519	32	0	
6	0	0	0	0	0	497	513	514	31	0	
7	0	0	0	0	0	502	515	505	31	0	
8	0	0	0	0	0	504	512	514	31	0	
9	0	0	0	0	2	510	515	513	31	0	
10	0	0	0	0	0	512	513	511	31	0	
11	0	0	0	0	0	513	508	508	31	0	
12	0	0	0	0	0	512	509	504	31	0	
13	0	0	0	0	0	511	512	503	31	0	
14	0	0	0	0	0	510	514	507	31	0	
15	0	0	0	0	0	511	519	500	31	0	
0	0	0	0	0	0	513	518	492	31	0	
1	0	0	0	0	2	509	510	493	31	0	
2	0	0	0	0	0	502	504	508	32	0	
3	0	0	0	0	0	497	504	516	32	0	
4	0	0	0	0	0	497	508	515	32	0	
5	0	0	0	0	0	495	510	516	32	0	
6	0	0	0	0	0	500	513	511	31	0	
7	0	0	0	0	0	499	516	514	31	0	
8	0	0	0	0	0	503	519	519	31	0	
9	0	0	0	0	2	499	519	524	32	0	
10	0	0	0	0	0	499	516	519	31	0	
11	0	0	0	0	0	505	509	507	32	0	
12	0	0	0	0	0	511	508	490	32	0	
13	0	0	0	0	0	515	515	489	31	0	
14	0	0	0	0	0	514	518	502	30	0	
15	0	0	0	0	0	511	515	515	30	0	
0	0	0	0	0	0	509	511	528	32	0	
1	0	0	0	0	3	500	513	520	31	0	
2	0	0	0	0	0	503	511	509	31	0	
3	0	0	0	0	0	508	508	499	32	0	
4	0	0	0	0	0	508	511	510	31	0	
5	0	0	0	0	0	505	513	516	31	0	
6	0	0	0	0	0	499	509	519	31	0	
7	0	0	0	0	0	499	505	509	32	0	
8	0	0	0	0	0	509	511	465	32	0	
9	0	0	0	0	3	507	511	483	31	0	
10	0	0	0	0	0	500	513	515	31	0	
11	0	0	0	0	0	503	515	531	31	0	
12	0	0	0	0	0	509	517	531	31	0	
13	0	0	0	0	0	517	513	514	31	0	
14	0	0	0	0	0	510	509	510	32	0	
15	0	0	0	0	0	507	510	504	32	0	
0	0	0	0	0	0	504	512	503	31	0	
1	0	0	0	0	2	504	511	513	31	0	
2	0	0	0	0	0	501	512	519	32	0	
3	0	0	0	0	0	503	510	516	32	0	
4	0	0	0	0	0	499	510	514	32	0	
5	0	0	0	0	0	501	510	508	32	0	
6	0	0	0	0	0	505	512	506	32	0	
7	0	0	0	0	0	505	513	508	31	0	
8	0	0	0	0	0	502	515	512	31	0	
9	0	0	0	0	2	500	515	516	31	0	
10	0	0	0	0	0	503	513	514	31	0	
11	0	0	0	0	0	504	510	508	31	0	
12	0	0	0	0	0	502	511	507	31	0	
13	0	0	0	0	0	500	513	504	31	0	
14	0	0	0	0	0	504	514	502	31	0	
15	0	0	0	0	0	508	513	502	31	0	
0	0	0	0	0	0	507	513	512	31	0	
1	0	0	0	0	2	504	512	518	32	0	
2	0	0	0	0	0	505	512	515	32	0	
3	0	0	0	0	0	506	515	516	32	0	
4	0	0	0	0	0	505	514	514	31	0	
5	0	0	0	0	0	505	512	511	30	0	
6	0	0	0	0	0	505	509	505	31	0	
7	0	0	0	0	0	505	507	503	31	0	
8	0	0	0	0	0	508	512	498	31	0	
9	0	0	0	0	2	508	513	496	30	0	
10	0	0	0	0	0	507	510	492	31	0	
11	0	0	0	0	0	509	512	492	31	0	
12	0	0	0	0	0	508	512	496	31	0	
13	0	0	0	0	0	508	512	499	31	0	
14	0	0	0	0	0	507	511	509	32	0	
15	0	0	0	0	0	504	511	515	32	0	
0	0	0	0	0	0	506	510	515	32	0	
1	0	0	0	0	1	506	511	511	32	0	
2	0	0	0	0	0	504	512	511	32	0	
3	0	0	0	0	0	498	512	525	32	0	
4	0	0	0	0	0	499	517	528	32	0	
5	0	0	0	0	0	500	519	529	32	0	
6	0	0	0	0	0	505	513	519	32	0	
7	0	0	0	0	0	511	514	512	31	0	
8	0	0	0	0	0	513	515	503	31	0	
9	0	0	0	0	1	509	513	498	30	0	
10	0	0	0	0	0	505	513	493	30	0	
11	0	0	0	0	0	501	513	497	30	0	
12	0	0	0	0	0	500	508	501	30	0	
13	0	0	0	0	0	504	507	503	30	0	
14	0	0	0	0	0	509	509	502	31	0	
15	0	0	0	0	0	508	507	506	31	0	
0	0	0	0	0	0	507	511	507	32	0	
1	0	0	0	0	2	504	511	509	32	0	
2	0	0	0	0	0	505	513	512	32	0	
3	0	0	0	0	0	504	511	514	32	0	
4	0	0	0	0	0	504	512	518	32	0	
5	0	0	0	0	0	504	512	523	32	0	
6	0	0	0	0	0	503	514	536	34	0	
7	0	0	0	0	0	504	517	542	36	0	
8	0	0	0	0	0	503	520	544	36	0	
9	0	0	0	0	2	502	519	543	35	0	
10	0	0	0	0	0	504	516	537	32	0	
11	0	0	0	0	0	512	516	505	29	0	
12	0	0	0	0	0	514	515	479	27	0	
13	0	0	0	0	0	509	510	459	26	0	
14	0	0	0	0	0	506	502	448	26	0	
15	0	0	0	0	0	504	499	450	27	0	
0	0	0	0	0	0	500	497	454	29	0	
1	0	0	0	0	3	499	500	478	31	0	
2	0	0	0	0	0	499	507	505	32	0	
3	0	0	0	0	0	500	512	515	33	0	
4	0	0	0	0	0	505	514	520	33	0	
5	0	0	0	0	0	506	517	524	33	0	
6	0	0	0	0	0	505	518	529	33	0	
7	0	0	0	0	0	507	518	528	32	0	
8	0	0	0	0	0	508	513	525	32	0	
9	0	0	0	0	3	507	515	522	32	0	
10	0	0	0	0	0	508	517	517	32	0	
11	0	0	0	0	0	505	517	515	32	0	
12	0	0	0	0	0	507	513	513	32	0	
13	0	0	0	0	0	505	513	516	32	0	
14	0	0	0	0	0	501	514	519	32	0	
15	0	0	0	0	0	503	513	517	32	0	
0	0	0	0	0	0	502	512	516	32	0	
1	0	0	0	0	2	504	512	515	32	0	
2	0	0	0	0	0	505	511	515	32	0	
3	0	0	0	0	0	509	508	511	32	0	
4	0	0	0	0	0	509	511	508	32	0	
5	0	0	0	0	0	504	511	511	32	0	
6	0	0	0	0	0	501	513	510	31	0	
7	0	0	0	0	0	504	514	504	31	0	
8	0	0	0	0	0	505	510	506	31	0	
9	0	0	0	0	3	505	512	505	31	0	
10	0	0	0	0	0	500	512	509	31	0	
11	0	0	0	0	0	501	512	518	31	0	
12	0	0	0	0	0	498	510	523	32	0	
13	0	0	0	0	0	501	509	517	32	0	
14	0	0	0	0	0	506	510	507	32	0	
15	0	0	0	0	0	515	510	481	31	0	
0	0	0	0	0	0	516	509	478	31	0	
1	0	0	0	0	2	512	511	501	31	0	
2	0	0	0	0	0	510	512	516	31	0	
3	0	0	0	0	0	503	513	526	31	0	
4	0	0	0	0	0	501	513	524	32	0	
5	0	0	0	0	0	500	514	521	31	0	
6	0	0	0	0	0	503	514	515	31	0	
7	0	0	0	0	0	503	512	511	31	0	
8	0	0	0	0	0	502	512	512	31	0	
9	0	0	0	0	2	503	511	507	31	0	
10	0	0	0	0	0	503	511	504	31	0	
11	0	0	0	0	0	505	513	504	31	0	
12	0	0	0	0	0	507	511	501	31	0	
13	0	0	0	0	0	504	512	503	31	0	
14	0	0	0	0	0	505	513	504	32	0	
15	0	0	0	0	0	505	514	513	32	0	
0	0	0	0	0	0	504	515	528	34	0	
1	0	0	0	0	3	508	515	534	34	0	
2	0	0	0	0	0	507	517	524	32	0	
3	0	0	0	0	0	508	513	513	31	0	
4	0	0	0	0	0	510	512	504	30	0	
5	0	0	0	0	0	509	512	495	28	0	
6	0	0	0	0	0	506	511	488	28	0	
7	0	0	0	0	0	507	509	485	28	0	
8	0	0	0	0	0	505	506	488	30	0	
9	0	0	0	0	3	506	508	494	30	0	
10	0	0	0	0	0	505	509	502	31	0	
11	0	0	0	0	0	504	508	494	31	0	
12	0	0	0	0	0	504	512	498	32	0	
13	0	0	0	0	0	499	515	512	32	0	
14	0	0	0	0	0	499	514	518	32	0	
15	0	0	0	0	0	500	512	518	33	0	
0	0	0	0	0	0	503	511	515	33	0	
1	0	0	0	0	2	505	514	518	33	0	
2	0	0	0	0	0	504	514	525	34	0	
3	0	0	0	0	0	503	516	528	33	0	
4	0	0	0	0	0	504	516	521	32	0	
5	0	0	0	0	0	507	516	514	30	0	
6	0	0	0	0	0	511	513	510	30	0	
7	0	0	0	0	0	508	510	514	31	0	
8	0	0	0	0	0	505	509	517	31	0	
9	0	0	0	0	1	504	508	513	30	0	
10	0	0	0	0	0	506	508	509	30	0	
11	0	0	0	0	0	506	508	500	30	0	
12	0	0	0	0	0	508	512	490	31	0	
13	0	0	0	0	0	506	515	489	31	0	
14	0	0	0	0	0	508	514	482	31	0	
15	0	0	0	0	0	508	515	478	31	0	
0	0	0	0	0	0	504	513	506	31	0	
1	0	0	0	0	1	504	511	519	31	0	
2	0	0	0	0	0	504	511	509	31	0	
3	0	0	0	0	0	503	511	504	31	0	
4	0	0	0	0	0	503	508	508	32	0	
5	0	0	0	0	0	505	507	514	32	0	
6	0	0	0	0	0	506	508	516	32	0	
7	0	0	0	0	0	505	513	517	32	0	
8	0	0	0	0	0	507	514	519	32	0	
9	0	0	0	0	1	501	513	519	32	0	
10	0	0	0	0	0	503	515	522	32	0	
11	0	0	0	0	0	500	513	519	32	0	
12	0	0	0	0	0	504	513	515	32	0	
13	0	0	0	0	0	507	511	512	32	0	
14	0	0	0	0	0	509	511	509	32	0	
15	0	0	0	0	0	508	512	507	32	0	
0	0	0	0	0	0	507	512	504	31	0	
1	0	0	0	0	2	504	513	511	32	0	
2	0	0	0	0	0	506	513	511	32	0	
3	0	0	0	0	0	504	513	512	31	0	
4	0	0	0	0	0	503	512	516	32	0	
5	0	0	0	0	0	502	513	514	31	0	
6	0	0	0	0	0	504	512	513	31	0	
7	0	0	0	0	0	504	510	513	31	0	
8	0	0	0	0	0	508	509	505	31	0	
9	0	0	0	0	2	509	514	504	31	0	
10	0	0	0	0	0	509	514	507	32	0	
11	0	0	0	0	0	507	516	508	32	0	
12	0	0	0	0	0	507	513	510	31	0	
13	0	0	0	0	0	503	514	511	31	0	
14	0	0	0	0	0	503	512	512	31	0	
15	0	0	0	0	0	504	513	509	31	0	
0	0	0	0	0	0	507	511	507	31	0	
1	0	0	0	0	2	505	511	506	31	0	
2	0	0	0	0	0	502	509	512	31	0	
3	0	0	0	0	0	502	509	515	31	0	
4	0	0	0	0	0	504	511	513	31	0	
5	0	0	0	0	0	504	513	510	31	0	
6	0	0	0	0	0	507	511	505	31	0	
7	0	0	0	0	0	504	512	502	31	0	
8	0	0	0	0	0	511	513	504	31	0	
9	0	0	0	0	2	508	510	506	31	0	
10	0	0	0	0	0	508	513	504	31	0	
11	0	0	0	0	0	507	513	504	31	0	
12	0	0	0	0	0	508	512	505	32	0	
13	0	0	0	0	0	508	511	503	31	0	
14	0	0	0	0	0	505	511	506	31	0	
15	0	0	0	0	0	505	514	507	32	0	
0	0	0	0	0	0	503	512	504	32	0	
1	0	0	0	0	2	501	513	506	31	0	
2	0	0	0	0	0	501	513	514	31	0	
3	0	0	0	0	0	500	513	515	31	0	
4	0	0	0	0	0	500	511	516	31	0	
5	0	0	0	0	0	504	512	513	32	0	
6	0	0	0	0	0	507	510	512	32	0	
7	0	0	0	0	0	506	512	510	31	0	
8	0	0	0	0	0	503	511	510	32	0	
9	0	0	0	0	2	500	513	511	31	0	
10	0	0	0	0	0	501	515	508	31	0	
11	0	0	0	0	0	504	513	512	31	0	
12	0	0	0	0	0	504	512	510	31	0	
13	0	0	0	0	0	507	512	510	32	0	
14	0	0	0	0	0	508	512	509	32	0	
15	0	0	0	0	0	510	513	508	32	0	
0	0	0	0	0	0	508	512	514	32	0	
1	0	0	0	0	2	509	512	511	31	0	
2	0	0	0	0	0	510	512	511	31	0	
3	0	0	0	0	0	506	510	508	31	0	
4	0	0	0	0	0	506	511	508	31	0	
5	0	0	0	0	0	504	508	507	31	0	
6	0	0	0	0	0	506	510	509	31	0	
7	0	0	0	0	0	504	511	506	31	0	
8	0	0	0	0	0	505	513	507	31	0	
9	0	0	0	0	3	504	513	508	31	0	
10	0	0	0	0	0	504	511	508	32	0	
11	0	0	0	0	0	505	511	510	32	0	
12	0	0	0	0	0	506	513	507	31	0	
13	0	0	0	0	0	507	515	506	31	0	
14	0	0	0	0	0	504	514	506	31	0	
15	0	0	0	0	0	504	513	511	31	0	
0	0	0	0	0	0	504	512	509	31	0	
1	0	0	0	0	2	505	512	512	31	0	
2	0	0	0	0	0	504	512	512	31	0	
3	0	0	0	0	0	505	512	509	31	0	
4	0	0	0	0	0	503	512	511	31	0	
5	0	0	0	0	0	504	514	509	31	0	
6	0	0	0	0	0	505	511	510	31	0	
7	0	0	0	0	0	505	512	511	32	0	
8	0	0	0	0	0	504	512	508	31	0	
9	0	0	0	0	3	505	510	508	31	0	
10	0	0	0	0	0	504	511	510	32	0	
11	0	0	0	0	0	504	513	510	32	0	
12	0	0	0	0	0	503	514	510	32	0	
13	0	0	0	0	0	505	515	511	32	0	
14	0	0	0	0	0	505	512	511	31	0	
15	0	0	0	0	0	505	513	506	31	0	
0	0	0	0	0	0	504	514	504	31	0	
1	0	0	0	0	3	504	510	504	31	0	
2	0	0	0	0	0	504	509	508	31	0	
3	0	0	0	0	0	504	510	508	31	0	
4	0	0	0	0	0	508	512	511	31	0	
5	0	0	0	0	0	510	512	512	31	0	
6	0	0	0	0	0	509	510	514	31	0	
7	0	0	0	0	0	505	511	508	31	0	
8	0	0	0	0	0	508	513	499	31	0	
9	0	0	0	0	1	510	510	499	31	0	
10	0	0	0	0	0	506	509	508	31	0	
11	0	0	0	0	0	505	510	507	31	0	
12	0	0	0	0	0	505	510	507	31	0	
13	0	0	0	0	0	502	511	507	31	0	
14	0	0	0	0	0	501	509	507	31	0	
15	0	0	0	0	0	500	510	511	31	0	
0	0	0	0	0	0	500	513	512	31	0	
1	0	0	0	0	1	505	513	508	31	0	
2	0	0	0	0	0	503	513	511	31	0	
3	0	0	0	0	0	500	510	510	31	0	
4	0	0	0	0	0	503	512	512	32	0	
5	0	0	0	0	0	504	511	511	32	0	
6	0	0	0	0	0	505	512	511	32	0	
7	0	0	0	0	0	504	514	511	32	0	
8	0	0	0	0	0	505	516	514	32	0	
9	0	0	0	0	1	511	513	512	31	0	
10	0	0	0	0	0	508	514	508	31	0	
11	0	0	0	0	0	509	515	507	31	0	
12	0	0	0	0	0	508	513	504	31	0	
13	0	0	0	0	0	507	512	507	31	0	
14	0	0	0	0	0	504	512	511	31	0	
15	0	0	0	0	0	504	512	511	31	0	
0	0	0	0	0	0	504	515	510	31	0	
1	0	0	0	0	2	504	515	511	31	0	
2	0	0	0	0	0	502	511	510	31	0	
3	0	0	0	0	0	501	510	512	32	0	
4	0	0	0	0	0	505	509	511	31	0	
5	0	0	0	0	0	505	508	508	31	0	
6	0	0	0	0	0	507	512	507	31	0	
7	0	0	0	0	0	507	512	510	32	0	
8	0	0	0	0	0	507	513	511	31	0	
9	0	0	0	0	2	506	515	514	31	0	
10	0	0	0	0	0	505	514	510	31	0	
11	0	0	0	0	0	507	513	511	31	0	
12	0	0	0	0	0	505	513	509	31	0	
13	0	0	0	0	0	504	512	508	31	0	
14	0	0	0	0	0	508	512	510	31	0	
15	0	0	0	0	0	507	512	513	31	0	
0	0	0	0	0	0	504	512	509	32	0	
1	0	0	0	0	2	507	513	507	32	0	
2	0	0	0	0	0	508	514	510	32	0	
3	0	0	0	0	0	506	515	511	32	0	
4	0	0	0	0	0	503	514	515	32	0	
5	0	0	0	0	0	501	511	518	32	0	
6	0	0	0	0	0	500	514	514	31	0	
7	0	0	0	0	0	503	512	513	31	0	
8	0	0	0	0	0	506	511	509	31	0	
9	0	0	0	0	2	508	512	501	31	0	
10	0	0	0	0	0	509	512	498	31	0	
11	0	0	0	0	0	509	513	497	31	0	
12	0	0	0	0	0	505	514	503	31	0	
13	0	0	0	0	0	502	512	508	31	0	
14	0	0	0	0	0	504	510	512	31	0	
15	0	0	0	0	0	504	511	512	31	0	
0	0	0	0	0	0	505	510	508	31	0	
1	0	0	0	0	2	504	509	504	31	0	
2	0	0	0	0	0	504	512	504	31	0	
3	0	0	0	0	0	503	512	504	31	0	
4	0	0	0	0	0	503	513	505	31	0	
5	0	0	0	0	0	506	511	507	31	0	
6	0	0	0	0	0	504	507	512	31	0	
7	0	0	0	0	0	504	511	512	31	0	
8	0	0	0	0	0	503	512	512	32	0	
9	0	0	0	0	3	503	512	515	31	0	
10	0	0	0	0	0	504	511	514	31	0	
11	0	0	0	0	0	504	511	513	32	0	
12	0	0	0	0	0	507	513	513	32	0	
13	0	0	0	0	0	507	511	511	31	0	
14	0	0	0	0	0	509	511	508	31	0	
15	0	0	0	0	0	508	512	505	31	0	
0	0	0	0	0	0	508	515	506	32	0	
1	0	0	0	0	2	506	512	504	32	0	
2	0	0	0	0	0	506	510	506	31	0	
3	0	0	0	0	0	505	511	507	32	0	
4	0	0	0	0	0	504	511	509	31	0	
5	0	0	0	0	0	504	513	511	32	0	
6	0	0	0	0	0	502	513	515	31	0	
7	0	0	0	0	0	501	514	515	31	0	
8	0	0	0	0	0	504	514	508	31	0	
9	0	0	0	0	2	505	514	508	31	0	
10	0	0	0	0	0	504	514	510	31	0	
11	0	0	0	0	0	506	513	510	31	0	
12	0	0	0	0	0	507	512	510	31	0	
13	0	0	0	0	0	505	511	509	31	0	
14	0	0	0	0	0	504	511	508	31	0	
15	0	0	0	0	0	504	510	506	31	0	
0	0	0	0	0	0	507	512	507	31	0	
1	0	0	0	0	2	507	510	508	32	0	
2	0	0	0	0	0	507	511	508	31	0	
3	0	0	0	0	0	505	513	510	31	0	
4	0	0	0	0	0	504	514	511	31	0	
5	0	0	0	0	0	500	512	512	31	0	
6	0	0	0	0	0	504	513	511	31	0	
7	0	0	0	0	0	502	511	512	31	0	
8	0	0	0	0	0	505	511	508	31	0	
9	0	0	0	0	2	504	511	508	32	0	
10	0	0	0	0	0	504	511	510	32	0	
11	0	0	0	0	0	506	511	511	32	0	
12	0	0	0	0	0	508	511	510	32	0	
13	0	0	0	0	0	509	510	508	31	0	
14	0	0	0	0	0	507	510	505	31	0	
15	0	0	0	0	0	505	511	509	31	0	
0	0	0	0	0	0	504	513	508	31	0	
1	0	0	0	0	3	504	514	508	31	0	
2	0	0	0	0	0	506	515	506	31	0	
3	0	0	0	0	0	504	512	505	31	0	
4	0	0	0	0	0	505	512	508	31	0	
5	0	0	0	0	0	507	511	509	32	0	
6	0	0	0	0	0	506	511	511	32	0	
7	0	0	0	0	0	507	512	510	32	0	
8	0	0	0	0	0	508	513	510	32	0	
9	0	0	0	0	1	507	512	512	31	0	
10	0	0	0	0	0	505	515	511	31	0	
11	0	0	0	0	0	506	513	508	31	0	
12	0	0	0	0	0	504	511	510	31	0	
13	0	0	0	0	0	504	508	509	31	0	
14	0	0	0	0	0	499	511	512	31	0	
15	0	0	0	0	0	501	510	511	31	0	
0	0	0	0	0	0	503	511	510	31	0	
1	0	0	0	0	1	504	510	510	32	0	
2	0	0	0	0	0	507	512	507	32	0	
3	0	0	0	0	0	507	511	505	31	0	
4	0	0	0	0	0	505	515	507	31	0	
5	0	0	0	0	0	505	514	509	31	0	
6	0	0	0	0	0	508	513	509	31	0	
7	0	0	0	0	0	506	515	505	31	0	
8	0	0	0	0	0	504	513	508	31	0	
9	0	0	0	0	2	503	512	510	31	0	
10	0	0	0	0	0	504	509	511	32	0	
11	0	0	0	0	0	504	508	510	31	0	
12	0	0	0	0	0	504	511	510	31	0	
13	0	0	0	0	0	503	515	511	31	0	
14	0	0	0	0	0	503	513	512	31	0	
15	0	0	0	0	0	504	511	509	31	0	
0	0	0	0	0	0	504	514	508	31	0	
1	0	0	0	0	2	505	514	512	31	0	
2	0	0	0	0	0	503	511	510	32	0	
3	0	0	0	0	0	507	510	513	31	0	
4	0	0	0	0	0	505	512	513	31	0	
5	0	0	0	0	0	505	511	510	31	0	
6	0	0	0	0	0	507	510	510	31	0	
7	0	0	0	0	0	508	511	511	32	0	
8	0	0	0	0	0	508	512	513	32	0	
9	0	0	0	0	3	507	510	511	32	0	
10	0	0	0	0	0	507	513	509	32	0	
11	0	0	0	0	0	505	515	508	31	0	
12	0	0	0	0	0	505	513	504	31	0	
13	0	0	0	0	0	505	513	505	31	0	
14	0	0	0	0	0	504	513	506	31	0	
15	0	0	0	0	0	507	513	504	31	0	
0	0	0	0	0	0	506	511	503	31	0	
1	0	0	0	0	2	507	513	504	31	0	
2	0	0	0	0	0	507	511	511	31	0	
3	0	0	0	0	0	508	508	512	31	0	
4	0	0	0	0	0	506	511	515	32	0	
5	0	0	0	0	0	503	512	512	31	0	
6	0	0	0	0	0	504	514	512	31	0	
7	0	0	0	0	0	504	513	508	31	0	
8	0	0	0	0	0	503	513	505	31	0	
9	0	0	0	0	3	502	516	503	31	0	
10	0	0	0	0	0	503	514	504	31	0	
11	0	0	0	0	0	504	510	504	31	0	
12	0	0	0	0	0	504	510	505	31	0	
13	0	0	0	0	0	504	509	507	31	0	
14	0	0	0	0	0	505	508	510	31	0	
15	0	0	0	0	0	504	508	512	32	0	
0	0	0	0	0	0	504	512	513	32	0	
1	0	0	0	0	3	505	513	511	32	0	
2	0	0	0	0	0	507	513	512	32	0	
3	0	0	0	0	0	508	515	511	31	0	
4	0	0	0	0	0	507	514	513	31	0	
5	0	0	0	0	0	506	512	510	31	0	
6	0	0	0	0	0	506	513	509	31	0	
7	0	0	0	0	0	506	513	508	31	0	
8	0	0	0	0	0	505	512	511	31	0	
9	0	0	0	0	2	504	513	511	31	0	
10	0	0	0	0	0	502	511	509	31	0	
11	0	0	0	0	0	502	510	508	32	0	
12	0	0	0	0	0	503	512	512	31	0	
13	0	0	0	0	0	504	510	511	31	0	
14	0	0	0	0	0	505	511	513	31	0	
15	0	0	0	0	0	505	512	512	31	0	
0	0	0	0	0	0	505	511	510	31	0	
1	0	0	0	0	2	508	511	510	31	0	
2	0	0	0	0	0	507	512	510	31	0	
3	0	0	0	0	0	510	515	507	32	0	
4	0	0	0	0	0	508	512	507	32	0	
5	0	0	0	0	0	505	512	509	31	0	
6	0	0	0	0	0	505	512	508	31	0	
7	0	0	0	0	0	505	512	504	31	0	
8	0	0	0	0	0	507	512	506	31	0	
9	0	0	0	0	2	504	513	507	31	0	
10	0	0	0	0	0	505	514	508	31	0	
11	0	0	0	0	0	505	515	508	31	0	
12	0	0	0	0	0	505	514	510	31	0	
13	0	0	0	0	0	504	510	509	31	0	
14	0	0	0	0	0	504	509	507	31	0	
15	0	0	0	0	0	506	510	509	31	0	
0	0	0	0	0	0	506	510	508	31	0	
1	0	0	0	0	2	503	509	508	31	0	
2	0	0	0	0	0	504	509	509	31	0	
3	0	0	0	0	0	504	513	510	31	0	
4	0	0	0	0	0	505	511	510	31	0	
5	0	0	0	0	0	505	511	511	31	0	
6	0	0	0	0	0	504	513	510	31	0	
7	0	0	0	0	0	504	514	508	31	0	
8	0	0	0	0	0	503	513	508	31	0	
9	0	0	0	0	2	504	514	509	31	0	
10	0	0	0	0	0	504	513	506	31	0	
11	0	0	0	0	0	503	512	511	31	0	
12	0	0	0	0	0	504	513	510	31	0	
13	0	0	0	0	0	503	510	510	31	0	
14	0	0	0	0	0	505	511	510	31	0	
15	0	0	0	0	0	505	511	511	31	0	
0	0	0	0	0	0	508	512	511	31	0	
1	0	0	0	0	1	508	512	511	32	0	
2	0	0	0	0	0	509	513	510	31	0	
3	0	0	0	0	0	510	513	512	31	0	
4	0	0	0	0	0	505	513	511	31	0	
5	0	0	0	0	0	506	512	510	31	0	
6	0	0	0	0	0	504	512	507	31	0	
7	0	0	0	0	0	503	511	507	31	0	
8	0	0	0	0	0	504	510	509	31	0	
9	0	0	0	0	1	502	511	508	32	0	
10	0	0	0	0	0	503	511	508	31	0	
11	0	0	0	0	0	505	513	508	31	0	
12	0	0	0	0	0	506	513	508	31	0	
13	0	0	0	0	0	506	512	513	31	0	
14	0	0	0	0	0	506	510	510	31	0	
15	0	0	0	0	0	508	511	508	32	0	
0	0	0	0	0	0	506	512	506	32	0	
1	0	0	0	0	1	504	514	507	32	0	
2	0	0	0	0	0	504	513	508	31	0	
3	0	0	0	0	0	506	511	511	32	0	
4	0	0	0	0	0	505	513	513	31	0	
5	0	0	0	0	0	504	511	509	31	0	
6	0	0	0	0	0	505	511	504	31	0	
7	0	0	0	0	0	505	509	507	31	0	
8	0	0	0	0	0	503	510	508	31	0	
9	0	0	0	0	2	502	511	510	32	0	
10	0	0	0	0	0	501	508	512	32	0	
11	0	0	0	0	0	502	512	512	31	0	
12	0	0	0	0	0	504	514	511	31	0	
13	0	0	0	0	0	508	516	505	31	0	
14	0	0	0	0	0	508	511	503	31	0	
15	0	0	0	0	0	510	513	504	31	0	
0	0	0	0	0	0	508	514	503	31	0	
1	0	0	0	0	2	509	514	506	31	0	
2	0	0	0	0	0	508	515	508	31	0	
3	0	0	0	0	0	508	512	508	31	0	
4	0	0	0	0	0	504	513	511	32	0	
5	0	0	0	0	0	507	512	512	32	0	
6	0	0	0	0	0	506	512	511	32	0	
7	0	0	0	0	0	504	511	512	32	0	
8	0	0	0	0	0	503	511	511	32	0	
9	0	0	0	0	2	503	511	511	32	0	
10	0	0	0	0	0	503	513	509	31	0	
11	0	0	0	0	0	502	512	510	31	0	
12	0	0	0	0	0	503	512	511	31	0	
13	0	0	0	0	0	501	512	512	31	0	
14	0	0	0	0	0	505	512	512	31	0	
15	0	0	0	0	0	504	510	510	31	0	
0	0	0	0	0	0	505	511	507	31	0	
1	0	0	0	0	2	504	510	508	31	0	
2	0	0	0	0	0	505	509	508	32	0	
3	0	0	0	0	0	504	510	511	32	0	
4	0	0	0	0	0	506	508	510	31	0	
5	0	0	0	0	0	504	513	510	31	0	
6	0	0	0	0	0	506	510	508	31	0	
7	0	0	0	0	0	506	512	507	31	0	
8	0	0	0	0	0	504	512	505	31	0	
9	0	0	0	0	3	504	510	508	31	0	
10	0	0	0	0	0	505	515	512	32	0	
11	0	0	0	0	0	507	515	512	32	0	
12	0	0	0	0	0	508	513	512	32	0	
13	0	0	0	0	0	508	513	513	31	0	
14	0	0	0	0	0	507	511	514	31	0	
15	0	0	0	0	0	505	513	514	31	0	
0	0	0	0	0	0	506	513	510	31	0	
1	0	0	0	0	3	506	513	508	31	0	
2	0	0	0	0	0	504	514	506	31	0	
3	0	0	0	0	0	504	512	502	31	0	
4	0	0	0	0	0	504	512	502	31	0	
5	0	0	0	0	0	505	513	505	31	0	
6	0	0	0	0	0	506	513	507	32	0	
7	0	0	0	0	0	507	513	509	32	0	
8	0	0	0	0	0	506	513	508	32	0	
9	0	0	0	0	2	504	514	511	31	0	
10	0	0	0	0	0	504	510	510	31	0	
11	0	0	0	0	0	507	514	508	31	0	
12	0	0	0	0	0	504	514	511	31	0	
13	0	0	0	0	0	502	511	513	31	0	
14	0	0	0	0	0	502	510	511	31	0	
15	0	0	0	0	0	504	509	509	31	0	
0	0	0	0	0	0	503	509	510	31	0	
1	0	0	0	0	3	505	511	510	31	0	
2	0	0	0	0	0	504	510	508	31	0	
3	0	0	0	0	0	505	512	507	31	0	
4	0	0	0	0	0	505	512	506	31	0	
5	0	0	0	0	0	506	512	508	31	0	
6	0	0	0	0	0	510	513	510	31	0	
7	0	0	0	0	0	506	512	508	31	0	
8	0	0	0	0	0	505	515	509	31	0	
9	0	0	0	0	3	504	511	508	31	0	
10	0	0	0	0	0	504	514	507	31	0	
11	0	0	0	0	0	503	512	508	31	0	
12	0	0	0	0	0	504	513	509	31	0	
13	0	0	0	0	0	502	513	509	32	0	
14	0	0	0	0	0	503	512	513	31	0	
15	0	0	0	0	0	506	511	513	31	0	
0	0	0	0	0	0	506	510	512	32	0	
1	0	0	0	0	2	508	513	511	31	0	
2	0	0	0	0	0	508	513	510	31	0	
3	0	0	0	0	0	507	511	511	31	0	
4	0	0	0	0	0	507	513	508	31	0	
5	0	0	0	0	0	508	510	508	31	0	
6	0	0	0	0	0	506	511	505	31	0	
7	0	0	0	0	0	507	515	506	31	0	
8	0	0	0	0	0	504	512	508	31	0	
9	0	0	0	0	2	504	513	512	31	0	
10	0	0	0	0	0	504	512	513	31	0	
11	0	0	0	0	0	504	512	511	31	0	
12	0	0	0	0	0	505	513	511	31	0	
13	0	0	0	0	0	505	512	508	31	0	
14	0	0	0	0	0	504	511	508	31	0	
15	0	0	0	0	0	505	512	507	31	0	
0	0	0	0	0	0	504	511	507	31	0	
1	0	0	0	0	1	506	513	507	31	0	
2	0	0	0	0	0	503	511	508	31	0	
3	0	0	0	0	0	505	510	511	31	0	
4	0	0	0	0	0	505	511	508	31	0	
5	0	0	0	0	0	504	512	508	31	0	
6	0	0	0	0	0	503	511	509	31	0	
7	0	0	0	0	0	506	509	510	31	0	
8	0	0	0	0	0	504	509	507	31	0	
9	0	0	0	0	1	503	509	508	32	0	
10	0	0	0	0	0	505	513	508	31	0	
11	0	0	0	0	0	504	514	510	31	0	
12	0	0	0	0	0	503	512	512	31	0	
13	0	0	0	0	0	503	512	511	31	0	
14	0	0	0	0	0	506	511	510	31	0	
15	0	0	0	0	0	505	512	511	31	0	
0	0	0	0	0	0	504	510	511	31	0	
1	0	0	0	0	1	505	512	509	31	0	
2	0	0	0	0	0	504	513	511	31	0	
3	0	0	0	0	0	504	513	514	32	0	
4	0	0	0	0	0	505	515	510	31	0	
5	0	0	0	0	0	508	515	508	31	0	
6	0	0	0	0	0	506	514	510	31	0	
7	0	0	0	0	0	508	513	509	32	0	
8	0	0	0	0	0	505	515	507	31	0	
9	0	0	0	0	2	505	513	509	31	0	
10	0	0	0	0	0	505	511	511	31	0	
11	0	0	0	0	0	506	511	511	31	0	
12	0	0	0	0	0	505	509	508	31	0	
13	0	0	0	0	0	505	513	508	31	0	
14	0	0	0	0	0	505	512	508	31	0	
15	0	0	0	0	0	504	513	510	31	0	
0	0	0	0	0	0	504	511	508	31	0	
1	0	0	0	0	2	506	514	508	31	0	
2	0	0	0	0	0	506	512	510	31	0	
3	0	0	0	0	0	503	512	507	31	0	
4	0	0	0	0	0	503	512	508	32	0	
5	0	0	0	0	0	504	509	505	32	0	
6	0	0	0	0	0	506	510	508	31	0	
7	0	0	0	0	0	505	511	508	31	0	
8	0	0	0	0	0	504	513	510	31	0	
9	0	0	0	0	2	506	511	508	31	0	
10	0	0	0	0	0	503	511	509	31	0	
11	0	0	0	0	0	503	513	511	31	0	
12	0	0	0	0	0	505	512	510	31	0	
13	0	0	0	0	0	502	511	509	31	0	
14	0	0	0	0	0	505	514	511	31	0	
15	0	0	0	0	0	504	512	508	31	0	
0	0	0	0	0	0	507	515	508	31	0	
1	0	0	0	0	2	505	514	511	31	0	
2	0	0	0	0	0	506	513	509	31	0	
3	0	0	0	0	0	507	513	511	31	0	
4	0	0	0	0	0	507	512	510	31	0	
5	0	0	0	0	0	505	510	509	31	0	
6	0	0	0	0	0	505	510	512	32	0	
7	0	0	0	0	0	504	509	513	32	0	
8	0	0	0	0	0	504	513	511	31	0	
9	0	0	0	0	2	504	514	512	31	0	
10	0	0	0	0	0	507	514	511	31	0	
11	0	0	0	0	0	507	513	510	31	0	
12	0	0	0	0	0	506	512	507	31	0	
13	0	0	0	0	0	505	513	505	31	0	
14	0	0	0	0	0	505	512	504	31	0	
15	0	0	0	0	0	507	512	508	31	0	
0	0	0	0	0	0	504	512	507	31	0	
1	0	0	0	0	2	506	511	508	31	0	
2	0	0	0	0	0	504	513	509	31	0	
3	0	0	0	0	0	505	513	511	31	0	
4	0	0	0	0	0	505	512	512	31	0	
5	0	0	0	0	0	505	511	512	31	0	
6	0	0	0	0	0	505	511	512	31	0	
7	0	0	0	0	0	504	512	510	31	0	
8	0	0	0	0	0	507	512	508	31	0	
9	0	0	0	0	2	505	513	509	31	0	
10	0	0	0	0	0	504	513	508	31	0	
11	0	0	0	0	0	505	513	508	31	0	
12	0	0	0	0	0	504	512	508	31	0	
13	0	0	0	0	0	503	512	507	31	0	
14	0	0	0	0	0	504	512	508	31	0	
15	0	0	0	0	0	504	513	511	31	0	
0	0	0	0	0	0	505	511	511	32	0	
1	0	0	0	0	2	507	510	515	32	0	
2	0	0	0	0	0	506	510	514	32	0	
3	0	0	0	0	0	505	514	514	32	0	
4	0	0	0	0	0	506	513	511	31	0	
5	0	0	0	0	0	505	510	509	31	0	
6	0	0	0	0	0	507	514	509	31	0	
7	0	0	0	0	0	506	512	505	31	0	
8	0	0	0	0	0	505	512	505	31	0	
9	0	0	0	0	2	507	511	508	31	0	
10	0	0	0	0	0	507	510	506	31	0	
11	0	0	0	0	0	508	512	508	31	0	
12	0	0	0	0	0	504	514	506	31	0	
13	0	0	0	0	0	506	511	505	31	0	
14	0	0	0	0	0	505	511	509	31	0	
15	0	0	0	0	0	506	510	508	31	0	
0	0	0	0	0	0	506	512	510	31	0	
1	0	0	0	0	3	504	510	510	32	0	
2	0	0	0	0	0	503	511	514	32	0	
3	0	0	0	0	0	502	510	515	31	0	
4	0	0	0	0	0	504	512	509	31	0	
5	0	0	0	0	0	505	510	509	32	0	
6	0	0	0	0	0	505	514	508	32	0	
7	0	0	0	0	0	505	513	509	31	0	
8	0	0	0	0	0	505	515	508	31	0	
9	0	0	0	0	2	504	514	507	31	0	
10	0	0	0	0	0	508	515	505	31	0	
11	0	0	0	0	0	508	514	506	31	0	
12	0	0	0	0	0	506	512	507	31	0	
13	0	0	0	0	0	507	512	508	32	0	
14	0	0	0	0	0	505	512	510	32	0	
15	0	0	0	0	0	503	512	511	31	0	
0	0	0	0	0	0	503	512	511	31	0	
1	0	0	0	0	1	505	511	512	31	0	
2	0	0	0	0	0	505	514	513	31	0	
3	0	0	0	0	0	504	514	512	31	0	
4	0	0	0	0	0	504	511	511	31	0	
5	0	0	0	0	0	503	511	509	31	0	
6	0	0	0	0	0	504	512	511	31	0	
7	0	0	0	0	0	505	512	509	32	0	
8	0	0	0	0	0	505	511	507	31	0	
9	0	0	0	0	1	504	511	510	31	0	
10	0	0	0	0	0	507	512	508	31	0	
11	0	0	0	0	0	507	512	508	31	0	
12	0	0	0	0	0	504	511	509	31	0	
13	0	0	0	0	0	504	511	510	31	0	
14	0	0	0	0	0	507	512	510	31	0	
15	0	0	0	0	0	506	512	509	31	0	
0	0	0	0	0	0	505	511	511	31	0	
1	0	0	0	0	3	507	510	510	31	0	
2	0	0	0	0	0	507	512	507	31	0	
3	0	0	0	0	0	510	513	510	31	0	
4	0	0	0	0	0	507	513	507	31	0	
5	0	0	0	0	0	508	513	506	31	0	
6	0	0	0	0	0	504	512	507	31	0	
7	0	0	0	0	0	504	512	507	31	0	
8	0	0	0	0	0	504	515	506	31	0	
9	0	0	0	0	3	503	511	512	31	0	
10	0	0	0	0	0	504	513	513	31	0	
11	0	0	0	0	0	504	515	510	31	0	
12	0	0	0	0	0	504	512	509	31	0	
13	0	0	0	0	0	503	511	512	31	0	
14	0	0	0	0	0	502	512	515	31	0	
15	0	0	0	0	0	502	511	513	31	0	
0	0	0	0	0	0	503	514	511	31	0	
1	0	0	0	0	2	507	512	510	31	0	
2	0	0	0	0	0	503	511	507	31	0	
3	0	0	0	0	0	505	512	507	31	0	
4	0	0	0	0	0	504	511	506	31	0	
5	0	0	0	0	0	505	512	505	31	0	
6	0	0	0	0	0	505	512	506	31	0	
7	0	0	0	0	0	506	511	507	31	0	
8	0	0	0	0	0	505	513	508	31	0	
9	0	0	0	0	3	506	510	507	31	0	
10	0	0	0	0	0	504	511	510	31	0	
11	0	0	0	0	0	505	511	511	31	0	
12	0	0	0	0	0	506	511	508	31	0	
13	0	0	0	0	0	508	512	508	31	0	
14	0	0	0	0	0	509	510	511	31	0	
15	0	0	0	0	0	508	513	511	32	0	
0	0	0	0	0	0	508	514	510	32	0	
1	0	0	0	0	3	506	512	512	32	0	
2	0	0	0	0	0	503	512	510	32	0	
3	0	0	0	0	0	502	513	509	31	0	
4	0	0	0	0	0	502	511	509	31	0	
5	0	0	0	0	0	504	513	508	31	0	
6	0	0	0	0	0	507	513	511	31	0	
7	0	0	0	0	0	505	513	508	31	0	
8	0	0	0	0	0	506	513	510	31	0	
9	0	0	0	0	2	505	510	508	31	0	
10	0	0	0	0	0	508	513	509	31	0	
11	0	0	0	0	0	507	511	509	31	0	
12	0	0	0	0	0	505	511	508	31	0	
13	0	0	0	0	0	505	510	511	31	0	
14	0	0	0	0	0	503	513	512	31	0	
15	0	0	0	0	0	504	513	509	31	0	
0	0	0	0	0	0	505	512	508	31	0	
1	0	0	0	0	3	505	512	511	31	0	
2	0	0	0	0	0	505	513	508	31	0	
3	0	0	0	0	0	504	513	510	31	0	
4	0	0	0	0	0	506	512	509	31	0	
5	0	0	0	0	0	505	512	509	31	0	
6	0	0	0	0	0	505	512	509	31	0	
7	0	0	0	0	0	506	512	509	31	0	
8	0	0	0	0	0	505	513	508	31	0	
9	0	0	0	0	2	505	510	509	31	0	
10	0	0	0	0	0	504	511	511	31	0	
11	0	0	0	0	0	504	508	511	31	0	
12	0	0	0	0	0	504	512	510	31	0	
13	0	0	0	0	0	505	514	508	31	0	
14	0	0	0	0	0	507	515	509	31	0	
15	0	0	0	0	0	504	515	508	32	0	
0	0	0	0	0	0	503	516	509	31	0	
1	0	0	0	0	2	503	513	510	31	0	
2	0	0	0	0	0	505	514	508	31	0	
3	0	0	0	0	0	505	512	507	31	0	
4	0	0	0	0	0	508	512	507	31	0	
5	0	0	0	0	0	504	512	508	31	0	
6	0	0	0	0	0	506	508	511	31	0	
7	0	0	0	0	0	505	508	508	31	0	
8	0	0	0	0	0	505	509	507	31	0	
9	0	0	0	0	2	507	512	508	31	0	
10	0	0	0	0	0	505	510	508	31	0	
11	0	0	0	0	0	506	512	509	31	0	
12	0	0	0	0	0	504	513	510	31	0	
13	0	0	0	0	0	505	513	508	31	0	
14	0	0	0	0	0	505	514	508	31	0	
15	0	0	0	0	0	504	512	509	31	0	
0	0	0	0	0	0	504	513	510	31	0	
1	0	0	0	0	2	505	512	513	31	0	
2	0	0	0	0	0	505	511	511	31	0	
3	0	0	0	0	0	504	510	510	31	0	
4	0	0	0	0	0	506	512	510	31	0	
5	0	0	0	0	0	504	512	510	31	0	
6	0	0	0	0	0	503	512	508	31	0	
7	0	0	0	0	0	505	513	509	31	0	
8	0	0	0	0	0	505	512	508	31	0	
9	0	0	0	0	1	507	512	506	31	0	
10	0	0	0	0	0	506	511	508	32	0	
11	0	0	0	0	0	508	512	509	31	0	
12	0	0	0	0	0	504	510	508	31	0	
13	0	0	0	0	0	506	513	508	31	0	
14	0	0	0	0	0	505	513	507	31	0	
15	0	0	0	0	0	507	512	510	31	0	
0	0	0	0	0	0	508	512	510	31	0	
1	0	0	0	0	1	504	513	508	31	0	
2	0	0	0	0	0	505	513	511	31	0	
3	0	0	0	0	0	504	513	513	31	0	
4	0	0	0	0	0	504	512	511	31	0	
5	0	0	0	0	0	505	513	510	31	0	
6	0	0	0	0	0	505	511	510	31	0	
7	0	0	0	0	0	505	512	509	32	0	
8	0	0	0	0	0	504	513	511	32	0	
9	0	0	0	0	1	504	513	512	31	0	
10	0	0	0	0	0	504	513	511	31	0	
11	0	0	0	0	0	505	511	510	31	0	
12	0	0	0	0	0	503	510	510	31	0	
13	0	0	0	0	0	504	512	508	31	0	
14	0	0	0	0	0	507	510	504	31	0	
15	0	0	0	0	0	507	510	506	31	0	
0	0	0	0	0	0	508	511	508	31	0	
1	0	0	0	0	2	507	513	504	31	0	
2	0	0	0	0	0	506	515	507	31	0	
3	0	0	0	0	0	505	514	509	31	0	
4	0	0	0	0	0	504	512	508	31	0	
5	0	0	0	0	0	503	512	506	31	0	
6	0	0	0	0	0	502	511	512	31	0	
7	0	0	0	0	0	502	511	513	31	0	
8	0	0	0	0	0	503	511	511	31	0	
9	0	0	0	0	2	504	512	512	31	0	
10	0	0	0	0	0	505	509	509	31	0	
11	0	0	0	0	0	506	512	507	31	0	
12	0	0	0	0	0	506	512	508	31	0	
13	0	0	0	0	0	504	515	505	31	0	
14	0	0	0	0	0	504	512	508	32	0	
15	0	0	0	0	0	508	513	511	32	0	
0	0	0	0	0	0	508	513	508	31	0	
1	0	0	0	0	3	508	511	508	31	0	
2	0	0	0	0	0	506	512	507	31	0	
3	0	0	0	0	0	504	512	510	31	0	
4	0	0	0	0	0	504	512	512	31	0	
5	0	0	0	0	0	503	509	512	32	0	
6	0	0	0	0	0	505	509	510	32	0	
7	0	0	0	0	0	504	513	509	31	0	
8	0	0	0	0	0	503	513	512	31	0	
9	0	0	0	0	2	507	513	511	31	0	
10	0	0	0	0	0	504	512	510	31	0	
11	0	0	0	0	0	504	511	508	31	0	
12	0	0	0	0	0	505	515	511	31	0	
13	0	0	0	0	0	505	514	509	31	0	
14	0	0	0	0	0	506	513	508	31	0	
15	0	0	0	0	0	504	512	508	31	0	
0	0	0	0	0	0	507	511	508	31	0	
1	0	0	0	0	2	506	511	510	31	0	
2	0	0	0	0	0	504	511	509	31	0	
3	0	0	0	0	0	506	512	510	32	0	
4	0	0	0	0	0	504	512	509	32	0	
5	0	0	0	0	0	504	513	512	31	0	
6	0	0	0	0	0	505	512	510	31	0	
7	0	0	0	0	0	507	512	510	31	0	
8	0	0	0	0	0	507	513	509	31	0	
9	0	0	0	0	2	506	512	508	31	0	
10	0	0	0	0	0	507	512	509	31	0	
11	0	0	0	0	0	505	512	508	31	0	
12	0	0	0	0	0	504	513	508	31	0	
13	0	0	0	0	0	505	511	509	31	0	
14	0	0	0	0	0	506	510	508	31	0	
15	0	0	0	0	0	504	512	508	31	0	
0	0	0	0	0	0	505	512	509	31	0	
1	0	0	0	0	2	506	513	510	31	0	
2	0	0	0	0	0	504	512	509	31	0	
3	0	0	0	0	0	506	512	507	31	0	
4	0	0	0	0	0	506	511	510	31	0	
5	0	0	0	0	0	508	513	509	31	0	
6	0	0	0	0	0	505	513	505	31	0	
7	0	0	0	0	0	505	513	505	31	0	
8	0	0	0	0	0	504	513	507	31	0	
9	0	0	0	0	2	503	512	509	31	0	
10	0	0	0	0	0	507	514	510	31	0	
11	0	0	0	0	0	504	513	510	31	0	
12	0	0	0	0	0	504	514	510	31	0	
13	0	0	0	0	0	505	514	511	31	0	
14	0	0	0	0	0	505	512	509	31	0	
15	0	0	0	0	0	505	513	512	31	0	
0	0	0	0	0	0	504	512	512	31	0	
1	0	0	0	0	2	505	511	511	31	0	
2	0	0	0	0	0	503	510	512	32	0	
3	0	0	0	0	0	504	511	509	32	0	
4	0	0	0	0	0	506	511	512	32	0	
5	0	0	0	0	0	508	510	510	31	0	
6	0	0	0	0	0	505	508	508	31	0	
7	0	0	0	0	0	507	511	508	31	0	
8	0	0	0	0	0	506	513	508	31	0	
9	0	0	0	0	2	506	512	507	31	0	
10	0	0	0	0	0	507	512	506	31	0	
11	0	0	0	0	0	505	514	508	31	0	
12	0	0	0	0	0	505	513	509	31	0	
13	0	0	0	0	0	504	510	508	32	0	
14	0	0	0	0	0	504	511	510	32	0	
15	0	0	0	0	0	502	512	511	31	0	
0	0	0	0	0	0	505	513	511	31	0	
1	0	0	0	0	3	506	511	509	32	0	
2	0	0	0	0	0	505	512	510	31	0	
3	0	0	0	0	0	504	515	508	31	0	
4	0	0	0	0	0	503	513	510	31	0	
5	0	0	0	0	0	503	510	509	31	0	
6	0	0	0	0	0	506	513	510	31	0	
7	0	0	0	0	0	505	513	508	31	0	
8	0	0	0	0	0	504	512	509	31	0	
9	0	0	0	0	1	505	511	511	31	0	
10	0	0	0	0	0	504	511	510	31	0	
11	0	0	0	0	0	504	514	509	31	0	
12	0	0	0	0	0	506	512	508	31	0	
13	0	0	0	0	0	506	513	508	31	0	
14	0	0	0	0	0	507	513	508	31	0	
15	0	0	0	0	0	504	513	509	31	0	
0	0	0	0	0	0	505	513	508	31	0	
1	0	0	0	0	1	505	512	508	31	0	
2	0	0	0	0	0	506	512	508	31	0	
3	0	0	0	0	0	504	511	509	32	0	
4	0	0	0	0	0	505	512	510	31	0	
5	0	0	0	0	0	505	512	510	31	0	
6	0	0	0	0	0	505	511	510	31	0	
7	0	0	0	0	0	505	512	512	31	0	
8	0	0	0	0	0	504	508	511	31	0	
9	0	0	0	0	1	503	510	511	31	0	
10	0	0	0	0	0	504	509	511	31	0	
11	0	0	0	0	0	506	511	508	31	0	
12	0	0	0	0	0	507	515	505	31	0	
13	0	0	0	0	0	507	515	505	31	0	
14	0	0	0	0	0	507	516	510	31	0	
15	0	0	0	0	0	505	513	509	31	0	
0	0	0	0	0	0	508	515	508	31	0	
1	0	0	0	0	2	506	511	508	31	0	
2	0	0	0	0	0	507	511	508	31	0	
3	0	0	0	0	0	506	510	508	31	0	
4	0	0	0	0	0	505	510	507	31	0	
5	0	0	0	0	0	506	512	511	31	0	
6	0	0	0	0	0	505	510	509	31	0	
7	0	0	0	0	0	505	514	510	31	0	
8	0	0	0	0	0	507	511	509	31	0	
9	0	0	0	0	3	504	511	510	31	0	
10	0	0	0	0	0	504	511	509	31	0	
11	0	0	0	0	0	504	513	507	31	0	
12	0	0	0	0	0	504	514	511	32	0	
13	0	0	0	0	0	504	514	512	31	0	
14	0	0	0	0	0	502	513	511	32	0	
15	0	0	0	0	0	503	510	510	32	0	
0	0	0	0	0	0	504	511	511	32	0	
1	0	0	0	0	3	504	509	510	31	0	
2	0	0	0	0	0	505	511	511	31	0	
3	0	0	0	0	0	505	511	512	31	0	
4	0	0	0	0	0	504	511	508	31	0	
5	0	0	0	0	0	504	511	509	31	0	
6	0	0	0	0	0	505	512	511	31	0	
7	0	0	0	0	0	505	511	508	31	0	
8	0	0	0	0	0	503	512	505	31	0	
9	0	0	0	0	3	505	513	503	31	0	
10	0	0	0	0	0	505	512	507	31	0	
11	0	0	0	0	0	503	512	504	31	0	
12	0	0	0	0	0	505	511	508	31	0	
13	0	0	0	0	0	506	514	507	31	0	
14	0	0	0	0	0	504	515	511	31	0	
15	0	0	0	0	0	506	513	511	31	0	
0	0	0	0	0	0	507	511	512	31	0	
1	0	0	0	0	3	506	512	511	31	0	
2	0	0	0	0	0	505	512	510	31	0	
3	0	0	0	0	0	505	512	509	31	0	
4	0	0	0	0	0	506	510	509	31	0	
5	0	0	0	0	0	505	508	511	32	0	
6	0	0	0	0	0	505	511	512	31	0	
7	0	0	0	0	0	504	511	511	31	0	
8	0	0	0	0	0	504	515	509	31	0	
9	0	0	0	0	2	505	514	509	31	0	
10	0	0	0	0	0	505	513	510	31	0	
11	0	0	0	0	0	505	510	511	31	0	
12	0	0	0	0	0	508	512	510	31	0	
13	0	0	0	0	0	506	513	508	31	0	
14	0	0	0	0	0	504	511	509	31	0	
15	0	0	0	0	0	505	512	508	31	0	
0	0	0	0	0	0	505	515	508	31	0	
1	0	0	0	0	2	508	514	508	31	0	
2	0	0	0	0	0	506	513	510	31	0	
3	0	0	0	0	0	504	511	508	31	0	
4	0	0	0	0	0	505	512	508	31	0	
5	0	0	0	0	0	504	511	508	31	0	
6	0	0	0	0	0	504	510	509	31	0	
7	0	0	0	0	0	503	512	507	31	0	
8	0	0	0	0	0	504	509	508	31	0	
9	0	0	0	0	2	506	512	509	31	0	
10	0	0	0	0	0	507	511	508	31	0	
11	0	0	0	0	0	506	511	508	31	0	
12	0	0	0	0	0	505	512	508	31	0	
13	0	0	0	0	0	505	515	510	31	0	
14	0	0	0	0	0	504	511	512	31	0	
15	0	0	0	0	0	504	514	513	32	0	
0	0	0	0	0	0	505	513	510	32	0	
1	0	0	0	0	3	504	515	510	31	0	
2	0	0	0	0	0	508	513	510	31	0	
3	0	0	0	0	0	508	511	508	31	0	
4	0	0	0	0	0	504	510	510	31	0	
5	0	0	0	0	0	505	510	512	31	0	
6	0	0	0	0	0	504	510	508	31	0	
7	0	0	0	0	0	504	511	509	32	0	
8	0	0	0	0	0	503	511	507	31	0	
9	0	0	0	0	2	503	513	507	31	0	
10	0	0	0	0	0	506	512	508	31	0	
11	0	0	0	0	0	505	512	507	31	0	
12	0	0	0	0	0	508	513	509	31	0	
13	0	0	0	0	0	509	512	507	31	0	
14	0	0	0	0	0	508	513	509	31	0	
15	0	0	0	0	0	504	511	510	32	0	
0	0	0	0	0	0	506	509	508	32	0	
1	0	0	0	0	2	504	508	510	31	0	
2	0	0	0	0	0	505	512	511	31	0	
3	0	0	0	0	0	504	513	511	31	0	
4	0	0	0	0	0	505	512	512	31	0	
5	0	0	0	0	0	505	513	510	31	0	
6	0	0	0	0	0	505	513	509	31	0	
7	0	0	0	0	0	506	515	509	31	0	
8	0	0	0	0	0	508	513	508	31	0	
9	0	0	0	0	1	505	513	509	31	0	
10	0	0	0	0	0	505	512	508	31	0	
11	0	0	0	0	0	506	508	506	31	0	
12	0	0	0	0	0	505	511	506	31	0	
13	0	0	0	0	0	504	512	506	31	0	
14	0	0	0	0	0	504	513	510	31	0	
15	0	0	0	0	0	502	512	512	32	0	
0	0	0	0	0	0	504	512	512	31	0	
1	0	0	0	0	1	504	512	512	32	0	
2	0	0	0	0	0	503	512	512	32	0	
3	0	0	0	0	0	503	512	508	31	0	
4	0	0	0	0	0	500	512	510	31	0	
5	0	0	0	0	0	504	513	511	31	0	
6	0	0	0	0	0	505	512	508	31	0	
7	0	0	0	0	0	507	511	508	31	0	
8	0	0	0	0	0	508	512	512	32	0	
9	0	0	0	0	3	508	513	511	31	0	
10	0	0	0	0	0	509	511	508	31	0	
11	0	0	0	0	0	508	510	509	31	0	
12	0	0	0	0	0	507	512	510	32	0	
13	0	0	0	0	0	507	509	508	31	0	
14	0	0	0	0	0	505	511	509	31	0	
15	0	0	0	0	0	505	511	508	31	0	
0	0	0	0	0	0	506	510	509	31	0	
1	0	0	0	0	2	503	511	508	31	0	
2	0	0	0	0	0	503	511	507	31	0	
3	0	0	0	0	0	504	511	507	31	0	
4	0	0	0	0	0	505	511	508	31	0	
5	0	0	0	0	0	504	510	504	31	0	
6	0	0	0	0	0	504	510	507	31	0	
7	0	0	0	0	0	504	511	505	31	0	
8	0	0	0	0	0	505	515	507	31	0	
9	0	0	0	0	2	505	515	509	31	0	
10	0	0	0	0	0	505	512	504	31	0	
11	0	0	0	0	0	506	511	503	31	0	
12	0	0	0	0	0	504	512	507	31	0	
13	0	0	0	0	0	504	513	512	31	0	
14	0	0	0	0	0	504	512	512	31	0	
15	0	0	0	0	0	504	512	509	31	0	
0	0	0	0	0	0	504	510	510	31	0	
1	0	0	0	0	3	502	511	511	31	0	
2	0	0	0	0	0	504	511	511	31	0	
3	0	0	0	0	0	504	511	512	31	0	
4	0	0	0	0	0	504	510	513	31	0	
5	0	0	0	0	0	506	510	514	32	0	
6	0	0	0	0	0	508	511	511	32	0	
7	0	0	0	0	0	507	515	508	31	0	
8	0	0	0	0	0	508	514	508	31	0	
9	0	0	0	0	2	507	515	508	31	0	
10	0	0	0	0	0	507	514	508	31	0	
11	0	0	0	0	0	506	515	511	31	0	
12	0	0	0	0	0	504	515	511	31	0	
13	0	0	0	0	0	504	512	512	32	0	
14	0	0	0	0	0	504	512	511	31	0	
15	0	0	0	0	0	506	512	508	31	0	
0	0	0	0	0	0	505	512	509	31	0	
1	0	0	0	0	3	508	515	509	31	0	
2	0	0	0	0	0	505	512	511	31	0	
3	0	0	0	0	0	502	511	510	31	0	
4	0	0	0	0	0	505	513	512	31	0	
5	0	0	0	0	0	505	512	513	31	0	
6	0	0	0	0	0	505	513	511	31	0	
7	0	0	0	0	0	505	511	513	31	0	
8	0	0	0	0	0	504	512	510	31	0	
9	0	0	0	0	2	506	515	509	31	0	
10	0	0	0	0	0	507	513	509	31	0	
11	0	0	0	0	0	505	510	509	31	0	
12	0	0	0	0	0	506	510	507	31	0	
13	0	0	0	0	0	505	511	506	31	0	
14	0	0	0	0	0	505	513	508	32	0	
15	0	0	0	0	0	504	512	508	32	0	
0	0	0	0	0	0	503	512	509	31	0	
1	0	0	0	0	3	503	512	511	31	0	
2	0	0	0	0	0	504	513	508	31	0	
3	0	0	0	0	0	504	512	510	31	0	
4	0	0	0	0	0	504	511	508	31	0	
5	0	0	0	0	0	505	511	508	31	0	
6	0	0	0	0	0	505	511	508	31	0	
7	0	0	0	0	0	507	510	510	31	0	
8	0	0	0	0	0	507	511	508	31	0	
9	0	0	0	0	2	508	512	507	31	0	
10	0	0	0	0	0	507	512	511	31	0	
11	0	0	0	0	0	505	513	508	31	0	
12	0	0	0	0	0	503	510	507	31	0	
13	0	0	0	0	0	504	513	508	31	0	
14	0	0	0	0	0	503	512	509	31	0	
15	0	0	0	0	0	504	512	510	32	0	
0	0	0	0	0	0	505	510	511	31	0	
1	0	0	0	0	2	505	513	510	31	0	
2	0	0	0	0	0	505	513	512	31	0	
3	0	0	0	0	0	504	512	512	31	0	
4	0	0	0	0	0	504	512	511	32	0	
5	0	0	0	0	0	508	511	511	32	0	
6	0	0	0	0	0	507	513	509	32	0	
7	0	0	0	0	0	507	511	508	31	0	
8	0	0	0	0	0	505	510	507	31	0	
9	0	0	0	0	2	507	512	508	31	0	
10	0	0	0	0	0	504	512	508	31	0	
11	0	0	0	0	0	506	511	508	31	0	
12	0	0	0	0	0	506	510	509	31	0	
13	0	0	0	0	0	503	512	510	31	0	
14	0	0	0	0	0	504	512	510	31	0	
15	0	0	0	0	0	503	512	510	31	0	
0	0	0	0	0	0	505	512	509	31	0	
1	0	0	0	0	1	505	514	508	31	0	
2	0	0	0	0	0	505	515	508	31	0	
3	0	0	0	0	0	504	514	508	31	0	
4	0	0	0	0	0	506	513	508	31	0	
5	0	0	0	0	0	504	513	509	32	0	
6	0	0	0	0	0	504	511	510	31	0	
7	0	0	0	0	0	505	512	510	31	0	
8	0	0	0	0	0	504	512	513	31	0	
9	0	0	0	0	1	504	514	511	31	0	
10	0	0	0	0	0	504	514	509	31	0	
11	0	0	0	0	0	506	512	509	31	0	
12	0	0	0	0	0	507	513	510	31	0	
13	0	0	0	0	0	507	510	508	31	0	
14	0	0	0	0	0	506	512	508	31	0	
15	0	0	0	0	0	507	512	508	31	0	
0	0	0	0	0	0	505	512	505	31	0	
1	0	0	0	0	1	503	512	505	31	0	
2	0	0	0	0	0	502	514	508	31	0	
3	0	0	0	0	0	505	512	510	31	0	
4	0	0	0	0	0	505	511	509	31	0	
5	0	0	0	0	0	504	511	511	31	0	
6	0	0	0	0	0	501	509	511	31	0	
7	0	0	0	0	0	505	512	510	31	0	
8	0	0	0	0	0	504	510	507	31	0	
9	0	0	0	0	2	505	510	509	31	0	
10	0	0	0	0	0	506	512	509	31	0	
11	0	0	0	0	0	505	511	511	31	0	
12	0	0	0	0	0	505	512	513	32	0	
13	0	0	0	0	0	505	515	510	32	0	
14	0	0	0	0	0	504	513	508	31	0	
15	0	0	0	0	0	506	513	512	31	0	
0	0	0	0	0	0	505	512	511	31	0	
1	0	0	0	0	2	508	512	511	31	0	
2	0	0	0	0	0	506	513	511	31	0	
3	0	0	0	0	0	506	512	509	31	0	
4	0	0	0	0	0	505	513	507	31	0	
5	0	0	0	0	0	504	513	509	31	0	
6	0	0	0	0	0	504	511	510	31	0	
7	0	0	0	0	0	505	515	509	31	0	
8	0	0	0	0	0	505	511	507	31	0	
9	0	0	0	0	2	505	510	505	31	0	
10	0	0	0	0	0	506	510	506	31	0	
11	0	0	0	0	0	503	512	509	31	0	
12	0	0	0	0	0	504	512	509	31	0	
13	0	0	0	0	0	504	510	511	31	0	
14	0	0	0	0	0	505	510	508	31	0	
15	0	0	0	0	0	507	511	509	31	0	
0	0	0	0	0	0	507	511	511	32	0	
1	0	0	0	0	2	508	511	509	32	0	
2	0	0	0	0	0	506	512	511	32	0	
3	0	0	0	0	0	504	513	511	32	0	
4	0	0	0	0	0	505	513	510	31	0	
5	0	0	0	0	0	504	513	510	31	0	
6	0	0	0	0	0	504	512	508	31	0	
7	0	0	0	0	0	506	512	511	31	0	
8	0	0	0	0	0	506	512	511	31	0	
9	0	0	0	0	2	507	510	509	31	0	
10	0	0	0	0	0	504	512	508	32	0	
11	0	0	0	0	0	502	510	509	31	0	
12	0	0	0	0	0	502	510	508	31	0	
13	0	0	0	0	0	504	509	507	31	0	
14	0	0	0	0	0	505	512	508	31	0	
15	0	0	0	0	0	508	513	505	31	0	
0	0	0	0	0	0	508	511	504	31	0	
1	0	0	0	0	2	506	514	505	31	0	
2	0	0	0	0	0	506	513	504	31	0	
3	0	0	0	0	0	507	511	509	31	0	
4	0	0	0	0	0	506	511	514	32	0	
5	0	0	0	0	0	506	514	515	32	0	
6	0	0	0	0	0	506	511	516	32	0	
7	0	0	0	0	0	503	513	513	32	0	
8	0	0	0	0	0	504	513	514	32	0	
9	0	0	0	0	3	504	511	510	32	0	
10	0	0	0	0	0	506	516	511	31	0	
11	0	0	0	0	0	504	515	507	31	0	
12	0	0	0	0	0	505	511	505	31	0	
13	0	0	0	0	0	504	510	505	31	0	
14	0	0	0	0	0	505	508	507	31	0	
15	0	0	0	0	0	505	510	508	31	0	
0	0	0	0	0	0	506	509	508	31	0	
1	0	0	0	0	2	506	510	508	31	0	
2	0	0	0	0	0	505	512	508	31	0	
3	0	0	0	0	0	506	513	507	31	0	
4	0	0	0	0	0	505	512	508	31	0	
5	0	0	0	0	0	504	512	512	31	0	
6	0	0	0	0	0	505	513	512	32	0	
7	0	0	0	0	0	502	511	513	32	0	
8	0	0	0	0	0	504	512	511	32	0	
9	0	0	0	0	2	504	512	513	31	0	
10	0	0	0	0	0	505	512	511	32	0	
11	0	0	0	0	0	507	515	513	32	0	
12	0	0	0	0	0	505	515	512	31	0	
13	0	0	0	0	0	507	515	508	31	0	
14	0	0	0	0	0	505	513	504	31	0	
15	0	0	0	0	0	506	511	504	31	0	
0	0	0	0	0	0	508	514	505	31	0	
1	0	0	0	0	2	505	513	507	31	0	
2	0	0	0	0	0	504	511	512	32	0	
3	0	0	0	0	0	505	510	515	32	0	
4	0	0	0	0	0	505	511	515	31	0	
5	0	0	0	0	0	505	511	513	31	0	
6	0	0	0	0	0	505	510	512	31	0	
7	0	0	0	0	0	505	511	510	31	0	
8	0	0	0	0	0	507	513	505	31	0	
9	0	0	0	0	2	508	513	499	31	0	
10	0	0	0	0	0	506	510	497	31	0	
11	0	0	0	0	0	504	513	496	31	0	
12	0	0	0	0	0	504	511	502	31	0	
13	0	0	0	0	0	503	513	506	32	0	
14	0	0	0	0	0	505	512	510	31	0	
15	0	0	0	0	0	504	512	513	32	0	
0	0	0	0	0	0	505	513	511	32	0	
1	0	0	0	0	1	504	510	513	32	0	
2	0	0	0	0	0	505	513	516	31	0	
3	0	0	0	0	0	505	512	514	32	0	
4	0	0	0	0	0	505	512	515	32	0	
5	0	0	0	0	0	505	514	510	32	0	
6	0	0	0	0	0	504	514	510	32	0	
7	0	0	0	0	0	504	511	509	31	0	
8	0	0	0	0	0	507	511	509	31	0	
9	0	0	0	0	1	504	512	511	31	0	
10	0	0	0	0	0	504	512	510	31	0	
11	0	0	0	0	0	505	509	509	31	0	
12	0	0	0	0	0	505	509	508	31	0	
13	0	0	0	0	0	505	511	507	31	0	
14	0	0	0	0	0	504	510	509	31	0	
15	0	0	0	0	0	506	511	508	31	0	
0	0	0	0	0	0	507	511	510	31	0	
1	0	0	0	0	1	505	512	512	31	0	
2	0	0	0	0	0	506	514	512	31	0	
3	0	0	0	0	0	507	512	511	31	0	
4	0	0	0	0	0	505	513	508	32	0	
5	0	0	0	0	0	503	511	510	32	0	
6	0	0	0	0	0	504	512	509	32	0	
7	0	0	0	0	0	504	513	509	32	0	
8	0	0	0	0	0	505	514	507	31	0	
9	0	0	0	0	3	505	510	509	31	0	
10	0	0	0	0	0	502	510	508	31	0	
11	0	0	0	0	0	504	511	508	31	0	
12	0	0	0	0	0	504	512	509	31	0	
13	0	0	0	0	0	507	512	505	31	0	
14	0	0	0	0	0	504	510	509	31	0	
15	0	0	0	0	0	505	510	507	31	0	
0	0	0	0	0	0	504	511	510	31	0	
1	0	0	0	0	2	507	512	506	31	0	
2	0	0	0	0	0	507	512	508	31	0	
3	0	0	0	0	0	507	513	508	31	0	
4	0	0	0	0	0	505	512	508	31	0	
5	0	0	0	0	0	506	515	509	31	0	
6	0	0	0	0	0	505	512	510	31	0	
7	0	0	0	0	0	504	515	512	31	0	
8	0	0	0	0	0	504	513	511	32	0	
9	0	0	0	0	3	502	511	512	32	0	
10	0	0	0	0	0	505	512	513	32	0	
11	0	0	0	0	0	505	512	512	32	0	
12	0	0	0	0	0	504	513	511	32	0	
13	0	0	0	0	0	506	515	510	31	0	
14	0	0	0	0	0	506	511	507	31	0	
15	0	0	0	0	0	506	512	505	31	0	
0	0	0	0	0	0	504	511	505	31	0	
1	0	0	0	0	2	504	510	504	31	0	
2	0	0	0	0	0	504	510	506	31	0	
3	0	0	0	0	0	507	511	510	31	0	
4	0	0	0	0	0	508	511	509	31	0	
5	0	0	0	0	0	507	512	508	31	0	
6	0	0	0	0	0	507	515	509	31	0	
7	0	0	0	0	0	507	513	511	31	0	
8	0	0	0	0	0	504	513	509	31	0	
9	0	0	0	0	2	504	512	508	32	0	
10	0	0	0	0	0	504	512	509	32	0	
11	0	0	0	0	0	504	513	508	31	0	
12	0	0	0	0	0	504	511	511	31	0	
13	0	0	0	0	0	503	511	510	31	0	
14	0	0	0	0	0	503	512	509	31	0	
15	0	0	0	0	0	503	512	508	31	0	
0	0	0	0	0	0	502	512	507	31	0	
1	0	0	0	0	2	505	512	509	31	0	
2	0	0	0	0	0	505	512	511	31	0	
3	0	0	0	0	0	505	512	515	32	0	
4	0	0	0	0	0	505	510	516	31	0	
5	0	0	0	0	0	505	512	513	32	0	
6	0	0	0	0	0	507	513	513	31	0	
7	0	0	0	0	0	507	515	510	31	0	
8	0	0	0	0	0	505	513	506	31	0	
9	0	0	0	0	2	507	512	507	31	0	
10	0	0	0	0	0	505	514	507	31	0	
11	0	0	0	0	0	504	510	507	32	0	
12	0	0	0	0	0	508	512	508	31	0	
13	0	0	0	0	0	505	511	506	31	0	
14	0	0	0	0	0	505	511	503	31	0	
15	0	0	0	0	0	503	510	504	32	0	
0	0	0	0	0	0	505	513	505	32	0	
1	0	0	0	0	3	503	513	509	31	0	
2	0	0	0	0	0	507	514	512	31	0	
3	0	0	0	0	0	506	513	513	31	0	
4	0	0	0	0	0	504	514	513	31	0	
5	0	0	0	0	0	505	513	515	31	0	
6	0	0	0	0	0	505	510	516	31	0	
7	0	0	0	0	0	509	509	512	31	0	
8	0	0	0	0	0	508	512	510	31	0	
9	0	0	0	0	2	510	513	507	31	0	
10	0	0	0	0	0	506	511	505	31	0	
11	0	0	0	0	0	506	511	500	31	0	
12	0	0	0	0	0	505	512	503	31	0	
13	0	0	0	0	0	505	513	504	32	0	
14	0	0	0	0	0	503	512	505	32	0	
15	0	0	0	0	0	505	513	510	31	0	
0	0	0	0	0	0	503	511	512	32	0	
1	0	0	0	0	2	502	510	515	31	0	
2	0	0	0	0	0	505	512	512	31	0	
3	0	0	0	0	0	502	511	512	31	0	
4	0	0	0	0	0	503	511	513	32	0	
5	0	0	0	0	0	505	509	511	31	0	
6	0	0	0	0	0	507	511	512	31	0	
7	0	0	0	0	0	505	512	510	31	0	
8	0	0	0	0	0	503	514	506	31	0	
9	0	0	0	0	2	504	512	507	31	0	
10	0	0	0	0	0	505	512	508	31	0	
11	0	0	0	0	0	505	512	508	31	0	
12	0	0	0	0	0	505	512	508	31	0	
13	0	0	0	0	0	506	513	512	31	0	
14	0	0	0	0	0	504	513	511	31	0	
15	0	0	0	0	0	505	511	510	31	0	
0	0	0	0	0	0	506	510	509	31	0	
1	0	0	0	0	1	507	513	508	31	0	
2	0	0	0	0	0	507	511	511	31	0	
3	0	0	0	0	0	508	512	509	31	0	
4	0	0	0	0	0	505	512	512	31	0	
5	0	0	0	0	0	504	515	513	31	0	
6	0	0	0	0	0	505	515	512	31	0	
7	0	0	0	0	0	502	510	509	31	0	
8	0	0	0	0	0	506	510	509	32	0	
9	0	0	0	0	1	505	512	507	31	0	
10	0	0	0	0	0	507	512	507	31	0	
11	0	0	0	0	0	505	513	507	31	0	
12	0	0	0	0	0	503	513	508	31	0	
13	0	0	0	0	0	505	511	506	31	0	
14	0	0	0	0	0	504	512	508	31	0	
15	0	0	0	0	0	504	512	510	31	0	
0	0	0	0	0	0	504	512	511	31	0	
1	0	0	0	0	2	505	511	511	31	0	
2	0	0	0	0	0	507	515	509	31	0	
3	0	0	0	0	0	505	513	510	31	0	
4	0	0	0	0	0	505	514	510	31	0	
5	0	0	0	0	0	505	511	511	32	0	
6	0	0	0	0	0	505	512	510	32	0	
7	0	0	0	0	0	503	513	510	32	0	
8	0	0	0	0	0	504	512	509	31	0	
9	0	0	0	0	3	504	511	509	31	0	
10	0	0	0	0	0	504	510	510	32	0	
11	0	0	0	0	0	502	512	507	31	0	
12	0	0	0	0	0	502	512	508	31	0	
13	0	0	0	0	0	505	512	509	31	0	
14	0	0	0	0	0	508	510	510	31	0	
15	0	0	0	0	0	506	510	508	31	0	
0	0	0	0	0	0	505	513	507	31	0	
1	0	0	0	0	3	508	511	507	31	0	
2	0	0	0	0	0	505	512	508	31	0	
3	0	0	0	0	0	505	513	510	31	0	
4	0	0	0	0	0	504	512	510	31	0	
5	0	0	0	0	0	503	512	507	31	0	
6	0	0	0	0	0	502	512	508	31	0	
7	0	0	0	0	0	504	512	508	31	0	
8	0	0	0	0	0	507	512	508	31	0	
9	0	0	0	0	2	507	513	508	31	0	
10	0	0	0	0	0	504	511	508	32	0	
11	0	0	0	0	0	507	513	506	31	0	
12	0	0	0	0	0	505	511	508	31	0	
13	0	0	0	0	0	504	510	509	32	0	
14	0	0	0	0	0	507	511	510	32	0	
15	0	0	0	0	0	508	513	511	31	0	
0	0	0	0	0	0	504	513	509	31	0	
1	0	0	0	0	3	505	514	511	31	0	
2	0	0	0	0	0	505	513	509	31	0	
3	0	0	0	0	0	507	512	508	31	0	
4	0	0	0	0	0	505	510	509	31	0	
5	0	0	0	0	0	505	512	507	31	0	
6	0	0	0	0	0	502	511	509	31	0	
7	0	0	0	0	0	504	510	512	31	0	
8	0	0	0	0	0	504	513	512	32	0	
9	0	0	0	0	2	507	512	512	31	0	
10	0	0	0	0	0	507	512	511	31	0	
11	0	0	0	0	0	504	512	510	32	0	
12	0	0	0	0	0	505	513	509	31	0	
13	0	0	0	0	0	505	515	511	31	0	
14	0	0	0	0	0	505	512	511	32	0	
15	0	0	0	0	0	505	515	511	32	0	
0	0	0	0	0	0	504	514	512	32	0	
1	0	0	0	0	2	506	511	511	31	0	
2	0	0	0	0	0	503	511	510	31	0	
3	0	0	0	0	0	506	508	508	31	0	
4	0	0	0	0	0	505	511	507	31	0	
5	0	0	0	0	0	504	511	505	31	0	
6	0	0	0	0	0	504	511	508	31	0	
7	0	0	0	0	0	506	513	507	31	0	
8	0	0	0	0	0	504	512	507	31	0	
9	0	0	0	0	2	502	512	506	31	0	
10	0	0	0	0	0	499	513	509	31	0	
11	0	0	0	0	0	503	512	508	31	0	
12	0	0	0	0	0	506	512	509	31	0	
13	0	0	0	0	0	504	514	509	32	0	
14	0	0	0	0	0	503	511	508	31	0	
15	0	0	0	0	0	507	513	508	31	0	
0	0	0	0	0	0	506	511	508	31	0	
1	0	0	0	0	2	508	513	511	31	0	
2	0	0	0	0	0	505	511	513	31	0	
3	0	0	0	0	0	508	512	511	31	0	
4	0	0	0	0	0	507	511	509	31	0	
5	0	0	0	0	0	509	513	510	31	0	
6	0	0	0	0	0	508	512	505	31	0	
7	0	0	0	0	0	510	513	507	31	0	
8	0	0	0	0	0	505	514	508	31	0	
9	0	0	0	0	3	505	511	508	31	0	
10	0	0	0	0	0	507	510	510	31	0	
11	0	0	0	0	0	504	511	509	31	0	
12	0	0	0	0	0	504	513	506	31	0	
13	0	0	0	0	0	504	512	509	31	0	
14	0	0	0	0	0	507	515	510	31	0	
15	0	0	0	0	0	505	511	510	32	0	
0	0	0	0	0	0	504	511	510	31	0	
1	0	0	0	0	2	506	513	509	31	0	
2	0	0	0	0	0	504	512	509	31	0	
3	0	0	0	0	0	504	514	513	31	0	
4	0	0	0	0	0	504	512	511	31	0	
5	0	0	0	0	0	503	510	508	31	0	
6	0	0	0	0	0	503	508	508	31	0	
7	0	0	0	0	0	503	511	508	31	0	
8	0	0	0	0	0	505	509	510	31	0	
9	0	0	0	0	1	505	509	511	31	0	
10	0	0	0	0	0	506	511	508	31	0	
11	0	0	0	0	0	505	513	505	31	0	
12	0	0	0	0	0	507	514	507	31	0	
13	0	0	0	0	0	506	512	508	31	0	
14	0	0	0	0	0	505	513	510	31	0	
15	0	0	0	0	0	504	514	511	31	0	
0	0	0	0	0	0	504	511	508	31	0	
1	0	0	0	0	1	505	511	509	31	0	
2	0	0	0	0	0	503	512	507	31	0	
3	0	0	0	0	0	504	512	509	31	0	
4	0	0	0	0	0	504	511	512	32	0	
5	0	0	0	0	0	503	511	515	31	0	
6	0	0	0	0	0	504	511	512	31	0	
7	0	0	0	0	0	505	512	507	31	0	
8	0	0	0	0	0	508	514	505	31	0	
9	0	0	0	0	1	510	513	508	31	0	
10	0	0	0	0	0	509	514	508	31	0	
11	0	0	0	0	0	509	513	509	31	0	
12	0	0	0	0	0	506	511	510	31	0	
13	0	0	0	0	0	503	512	507	31	0	
14	0	0	0	0	0	504	512	513	31	0	
15	0	0	0	0	0	504	513	512	31	0	
0	0	0	0	0	0	504	512	511	31	0	
1	0	0	0	0	3	507	511	508	31	0	
2	0	0	0	0	0	505	511	505	31	0	
3	0	0	0	0	0	504	511	507	31	0	
4	0	0	0	0	0	503	510	509	31	0	
5	0	0	0	0	0	504	512	508	31	0	
6	0	0	0	0	0	504	511	509	31	0	
7	0	0	0	0	0	504	507	508	32	0	
8	0	0	0	0	0	508	506	508	31	0	
9	0	0	0	0	2	507	514	506	31	0	
10	0	0	0	0	0	507	514	507	31	0	
11	0	0	0	0	0	507	515	510	31	0	
12	0	0	0	0	0	505	514	511	31	0	
13	0	0	0	0	0	504	513	512	31	0	
14	0	0	0	0	0	504	515	509	31	0	
15	0	0	0	0	0	505	515	508	31	0	
0	0	0	0	0	0	506	512	505	31	0	
1	0	0	0	0	3	503	515	509	31	0	
2	0	0	0	0	0	502	514	511	31	0	
3	0	0	0	0	0	503	514	508	32	0	
4	0	0	0	0	0	503	512	513	32	0	
5	0	0	0	0	0	505	511	510	32	0	
6	0	0	0	0	0	508	513	509	31	0	
7	0	0	0	0	0	504	512	513	32	0	
8	0	0	0	0	0	504	510	511	32	0	
9	0	0	0	0	2	505	512	512	31	0	
10	0	0	0	0	0	507	508	512	32	0	
11	0	0	0	0	0	509	511	509	31	0	
12	0	0	0	0	0	511	511	504	31	0	
13	0	0	0	0	0	508	511	504	31	0	
14	0	0	0	0	0	505	511	504	31	0	
15	0	0	0	0	0	505	511	505	31	0	
0	0	0	0	0	0	500	513	514	31	0	
1	0	0	0	0	2	499	512	516	31	0	
2	0	0	0	0	0	500	508	513	31	0	
3	0	0	0	0	0	509	508	510	32	0	
4	0	0	0	0	0	511	508	506	32	0	
5	0	0	0	0	0	512	508	501	32	0	
6	0	0	0	0	0	509	511	504	32	0	
7	0	0	0	0	0	502	512	509	31	0	
8	0	0	0	0	0	499	512	507	32	0	
9	0	0	0	0	3	502	512	497	31	0	
10	0	0	0	0	0	496	515	506	31	0	
11	0	0	0	0	0	497	513	516	31	0	
12	0	0	0	0	0	504	514	517	31	0	
13	0	0	0	0	0	510	508	513	31	0	
14	0	0	0	0	0	505	508	514	31	0	
15	0	0	0	0	0	506	512	509	31	0	
0	0	0	0	0	0	511	515	497	31	0	
1	0	0	0	0	2	507	518	512	32	0	
2	0	0	0	0	0	504	526	530	32	0	
3	0	0	0	0	0	499	523	534	32	0	
4	0	0	0	0	0	496	512	527	32	0	
5	0	0	0	0	0	499	506	518	32	0	
6	0	0	0	0	0	503	504	507	31	0	
7	0	0	0	0	0	504	507	500	31	0	
8	0	0	0	0	0	510	508	494	31	0	
9	0	0	0	0	2	518	511	491	31	0	
10	0	0	0	0	0	520	515	492	31	0	
11	0	0	0	0	0	514	520	499	31	0	
12	0	0	0	0	0	512	513	498	32	0	
13	0	0	0	0	0	508	511	505	31	0	
14	0	0	0	0	0	507	508	510	31	0	
15	0	0	0	0	0	504	512	515	32	0	
0	0	0	0	0	0	502	511	517	32	0	
1	0	0	0	0	2	493	519	521	32	0	
2	0	0	0	0	0	492	519	511	31	0	
3	0	0	0	0	0	499	513	505	31	0	
4	0	0	0	0	0	498	507	505	31	0	
5	0	0	0	0	0	504	505	505	31	0	
6	0	0	0	0	0	502	505	499	31	0	
7	0	0	0	0	0	509	506	497	31	0	
8	0	0	0	0	0	510	513	517	31	0	
9	0	0	0	0	2	508	511	535	31	0	
10	0	0	0	0	0	515	514	523	32	0	
11	0	0	0	0	0	517	520	503	31	0	
12	0	0	0	0	0	512	524	494	30	0	
13	0	0	0	0	0	507	516	496	30	0	
14	0	0	0	0	0	509	515	484	31	0	
15	0	0	0	0	0	513	508	489	31	0	
0	0	0	0	0	0	508	510	504	31	0	
1	0	0	0	0	2	511	509	479	31	0	
2	0	0	0	0	0	499	508	501	32	0	
3	0	0	0	0	0	488	505	541	32	0	
4	0	0	0	0	0	483	508	548	31	0	
5	0	0	0	0	0	486	502	543	32	0	
6	0	0	0	0	0	492	497	536	33	0	
7	0	0	0	0	0	501	514	548	33	0	
8	0	0	0	0	0	502	525	530	32	0	
9	0	0	0	0	1	509	530	498	32	0	
10	0	0	0	0	0	511	523	489	31	0	
11	0	0	0	0	0	503	511	492	31	0	
12	0	0	0	0	0	505	509	494	31	0	
13	0	0	0	0	0	504	508	507	31	0	
14	0	0	0	0	0	517	511	507	31	0	
15	0	0	0	0	0	520	516	500	31	0	
0	0	0	0	0	0	512	513	513	32	0	
1	0	0	0	0	1	510	507	505	32	0	
2	0	0	0	0	0	515	511	506	31	0	
3	0	0	0	0	0	509	513	515	31	0	
4	0	0	0	0	0	498	510	520	31	0	
5	0	0	0	0	0	499	507	507	31	0	
6	0	0	0	0	0	497	508	505	31	0	
7	0	0	0	0	0	500	512	502	31	0	
8	0	0	0	0	0	505	512	504	31	0	
9	0	0	0	0	1	519	520	484	31	0	
10	0	0	0	0	0	527	525	473	31	0	
11	0	0	0	0	0	526	518	489	30	0	
12	0	0	0	0	0	522	512	491	30	0	
13	0	0	0	0	0	503	507	506	31	0	
14	0	0	0	0	0	489	505	524	33	0	
15	0	0	0	0	0	477	510	553	33	0	
0	0	0	0	0	0	489	513	534	32	0	
1	0	0	0	0	3	502	515	495	31	0	
2	0	0	0	0	0	500	514	511	31	0	
3	0	0	0	0	0	497	510	537	32	0	
4	0	0	0	0	0	502	507	543	32	0	
5	0	0	0	0	0	499	511	542	32	0	
6	0	0	0	0	0	499	509	531	33	0	
7	0	0	0	0	0	499	514	515	33	0	
8	0	0	0	0	0	503	519	508	31	0	
9	0	0	0	0	3	503	515	513	31	0	
10	0	0	0	0	0	504	502	498	32	0	
11	0	0	0	0	0	503	505	501	32	0	
12	0	0	0	0	0	507	510	500	31	0	
13	0	0	0	0	0	509	515	496	31	0	
14	0	0	0	0	0	508	512	495	31	0	
15	0	0	0	0	0	513	515	494	31	0	
0	0	0	0	0	0	512	516	495	31	0	
1	0	0	0	0	2	509	509	499	31	0	
2	0	0	0	0	0	509	505	510	31	0	
3	0	0	0	0	0	509	508	516	31	0	
4	0	0	0	0	0	514	515	505	31	0	
5	0	0	0	0	0	519	524	490	31	0	
6	0	0	0	0	0	518	519	488	31	0	
7	0	0	0	0	0	510	514	499	31	0	
8	0	0	0	0	0	507	512	511	31	0	
9	0	0	0	0	2	499	510	524	32	0	
10	0	0	0	0	0	500	511	516	31	0	
11	0	0	0	0	0	498	511	524	31	0	
12	0	0	0	0	0	503	514	519	31	0	
13	0	0	0	0	0	500	509	512	32	0	
14	0	0	0	0	0	502	509	511	31	0	
15	0	0	0	0	0	500	512	515	31	0	
0	0	0	0	0	0	503	512	506	31	0	
1	0	0	0	0	2	505	514	504	31	0	
2	0	0	0	0	0	503	510	500	31	0	
3	0	0	0	0	0	504	510	501	31	0	
4	0	0	0	0	0	504	510	515	32	0	
5	0	0	0	0	0	504	507	522	32	0	
6	0	0	0	0	0	502	507	512	32	0	
7	0	0	0	0	0	502	507	508	31	0	
8	0	0	0	0	0	502	508	503	31	0	
9	0	0	0	0	3	500	512	503	31	0	
10	0	0	0	0	0	502	515	507	31	0	
11	0	0	0	0	0	504	516	513	31	0	
12	0	0	0	0	0	508	519	515	32	0	
13	0	0	0	0	0	515	521	509	31	0	
14	0	0	0	0	0	513	520	505	31	0	
15	0	0	0	0	0	506	514	511	31	0	
0	0	0	0	0	0	504	509	514	32	0	
1	0	0	0	0	3	505	510	516	32	0	
2	0	0	0	0	0	505	509	517	32	0	
3	0	0	0	0	0	505	509	512	31	0	
4	0	0	0	0	0	505	511	510	31	0	
5	0	0	0	0	0	506	513	507	32	0	
6	0	0	0	0	0	505	512	505	31	0	
7	0	0	0	0	0	505	513	507	31	0	
8	0	0	0	0	0	504	513	507	31	0	
9	0	0	0	0	2	505	511	505	31	0	
10	0	0	0	0	0	504	509	505	31	0	
11	0	0	0	0	0	503	509	507	31	0	
12	0	0	0	0	0	504	513	507	31	0	
13	0	0	0	0	0	504	512	513	31	0	
14	0	0	0	0	0	506	511	511	31	0	
15	0	0	0	0	0	508	510	510	31	0	
0	0	0	0	0	0	502	509	508	31	0	
1	0	0	0	0	2	503	512	505	31	0	
2	0	0	0	0	0	504	516	509	31	0	
3	0	0	0	0	0	506	518	506	31	0	
4	0	0	0	0	0	507	514	512	31	0	
5	0	0	0	0	0	504	511	511	31	0	
6	0	0	0	0	0	504	511	508	31	0	
7	0	0	0	0	0	504	511	511	31	0	
8	0	0	0	0	0	503	510	512	32	0	
9	0	0	0	0	2	503	512	511	32	0	
10	0	0	0	0	0	501	509	511	31	0	
11	0	0	0	0	0	503	511	508	31	0	
12	0	0	0	0	0	503	514	509	31	0	
13	0	0	0	0	0	507	515	508	31	0	
14	0	0	0	0	0	511	514	505	31	0	
15	0	0	0	0	0	512	513	507	31	0	
0	0	0	0	0	0	511	514	510	31	0	
1	0	0	0	0	2	509	518	511	31	0	
2	0	0	0	0	0	509	516	510	31	0	
3	0	0	0	0	0	507	512	508	32	0	
4	0	0	0	0	0	507	510	508	32	0	
5	0	0	0	0	0	504	512	511	32	0	
6	0	0	0	0	0	503	510	509	31	0	
7	0	0	0	0	0	504	512	508	31	0	
8	0	0	0	0	0	505	512	504	31	0	
9	0	0	0	0	1	504	510	503	31	0	
10	0	0	0	0	0	504	510	509	31	0	
11	0	0	0	0	0	501	512	515	31	0	
12	0	0	0	0	0	504	512	515	32	0	
13	0	0	0	0	0	504	509	513	32	0	
14	0	0	0	0	0	503	509	511	32	0	
15	0	0	0	0	0	504	511	510	31	0	
0	0	0	0	0	0	505	511	508	31	0	
1	0	0	0	0	1	503	512	510	31	0	
2	0	0	0	0	0	504	512	515	32	0	
3	0	0	0	0	0	503	512	513	31	0	
4	0	0	0	0	0	505	512	512	31	0	
5	0	0	0	0	0	505	514	509	31	0	
6	0	0	0	0	0	507	513	505	31	0	
7	0	0	0	0	0	508	513	507	31	0	
8	0	0	0	0	0	506	513	507	31	0	
9	0	0	0	0	2	506	512	507	32	0	
10	0	0	0	0	0	504	512	507	31	0	
11	0	0	0	0	0	506	513	508	31	0	
12	0	0	0	0	0	506	512	508	31	0	
13	0	0	0	0	0	505	510	509	31	0	
14	0	0	0	0	0	505	511	510	31	0	
15	0	0	0	0	0	505	513	505	31	0	
0	0	0	0	0	0	505	513	506	31	0	
1	0	0	0	0	2	507	514	508	31	0	
2	0	0	0	0	0	505	514	504	31	0	
3	0	0	0	0	0	504	511	505	31	0	
4	0	0	0	0	0	503	511	506	31	0	
5	0	0	0	0	0	504	512	509	32	0	
6	0	0	0	0	0	504	510	512	32	0	
7	0	0	0	0	0	502	510	513	31	0	
8	0	0	0	0	0	504	509	515	32	0	
9	0	0	0	0	2	504	511	518	32	0	
10	0	0	0	0	0	504	512	515	31	0	
11	0	0	0	0	0	505	511	514	31	0	
12	0	0	0	0	0	505	509	509	31	0	
13	0	0	0	0	0	508	511	509	31	0	
14	0	0	0	0	0	507	513	506	32	0	
15	0	0	0	0	0	507	514	506	31	0	
0	0	0	0	0	0	505	515	504	31	0	
1	0	0	0	0	3	506	515	503	31	0	
2	0	0	0	0	0	505	512	506	31	0	
3	0	0	0	0	0	505	515	512	31	0	
4	0	0	0	0	0	508	513	511	31	0	
5	0	0	0	0	0	506	513	510	31	0	
6	0	0	0	0	0	507	514	509	31	0	
7	0	0	0	0	0	505	511	508	31	0	
8	0	0	0	0	0	500	511	511	31	0	
9	0	0	0	0	2	504	511	513	31	0	
10	0	0	0	0	0	503	511	510	31	0	
11	0	0	0	0	0	504	511	507	31	0	
12	0	0	0	0	0	504	510	508	31	0	
13	0	0	0	0	0	506	509	509	32	0	
14	0	0	0	0	0	506	512	511	32	0	
15	0	0	0	0	0	505	510	511	32	0	
0	0	0	0	0	0	503	511	510	32	0	
1	0	0	0	0	2	504	514	512	31	0	
2	0	0	0	0	0	505	514	508	31	0	
3	0	0	0	0	0	508	512	508	31	0	
4	0	0	0	0	0	509	513	505	31	0	
5	0	0	0	0	0	507	514	506	31	0	
6	0	0	0	0	0	508	513	506	31	0	
7	0	0	0	0	0	509	515	504	31	0	
8	0	0	0	0	0	509	513	507	31	0	
9	0	0	0	0	2	506	513	510	31	0	
10	0	0	0	0	0	503	511	507	31	0	
11	0	0	0	0	0	504	513	509	31	0	
12	0	0	0	0	0	503	513	511	31	0	
13	0	0	0	0	0	503	510	507	31	0	
14	0	0	0	0	0	503	513	510	31	0	
15	0	0	0	0	0	503	514	513	31	0	
0	0	0	0	0	0	501	513	515	31	0	
1	0	0	0	0	2	500	512	514	31	0	
2	0	0	0	0	0	505	512	512	31	0	
3	0	0	0	0	0	506	511	510	31	0	
4	0	0	0	0	0	507	509	508	31	0	
5	0	0	0	0	0	504	510	508	31	0	
6	0	0	0	0	0	505	512	512	31	0	
7	0	0	0	0	0	508	512	510	32	0	
8	0	0	0	0	0	508	513	508	31	0	
9	0	0	0	0	3	504	512	505	31	0	
10	0	0	0	0	0	505	510	505	31	0	
11	0	0	0	0	0	504	513	507	31	0	
12	0	0	0	0	0	504	513	511	31	0	
13	0	0	0	0	0	505	513	512	32	0	
14	0	0	0	0	0	505	511	511	32	0	
15	0	0	0	0	0	506	512	510	31	0	
0	0	0	0	0	0	504	511	510	31	0	
1	0	0	0	0	2	506	512	511	32	0	
2	0	0	0	0	0	503	511	511	31	0	
3	0	0	0	0	0	504	512	508	31	0	
4	0	0	0	0	0	503	511	507	31	0	
5	0	0	0	0	0	505	510	506	31	0	
6	0	0	0	0	0	502	511	510	31	0	
7	0	0	0	0	0	501	515	510	31	0	
8	0	0	0	0	0	506	512	509	31	0	
9	0	0	0	0	2	508	511	509	31	0	
10	0	0	0	0	0	508	510	514	31	0	
11	0	0	0	0	0	508	511	511	32	0	
12	0	0	0	0	0	508	511	510	32	0	
13	0	0	0	0	0	505	511	508	31	0	
14	0	0	0	0	0	505	510	505	31	0	
15	0	0	0	0	0	505	512	505	31	0	
0	0	0	0	0	0	504	511	506	31	0	
1	0	0	0	0	1	502	510	508	31	0	
2	0	0	0	0	0	503	512	509	31	0	
3	0	0	0	0	0	504	510	511	31	0	
4	0	0	0	0	0	504	512	513	31	0	
5	0	0	0	0	0	503	513	511	31	0	
6	0	0	0	0	0	502	510	511	31	0	
7	0	0	0	0	0	503	513	510	31	0	
8	0	0	0	0	0	504	515	511	31	0	
9	0	0	0	0	1	505	513	510	31	0	
10	0	0	0	0	0	506	512	510	31	0	
11	0	0	0	0	0	508	513	505	31	0	
12	0	0	0	0	0	509	516	505	31	0	
13	0	0	0	0	0	507	512	504	31	0	
14	0	0	0	0	0	507	512	504	31	0	
15	0	0	0	0	0	507	513	507	31	0	
0	0	0	0	0	0	504	512	508	32	0	
1	0	0	0	0	1	503	512	513	32	0	
2	0	0	0	0	0	504	514	514	31	0	
3	0	0	0	0	0	505	513	513	31	0	
4	0	0	0	0	0	508	513	512	31	0	
5	0	0	0	0	0	505	512	511	31	0	
6	0	0	0	0	0	504	513	511	31	0	
7	0	0	0	0	0	504	509	511	31	0	
8	0	0	0	0	0	506	511	508	31	0	
9	0	0	0	0	2	503	510	505	31	0	
10	0	0	0	0	0	505	512	507	31	0	
11	0	0	0	0	0	505	512	508	31	0	
12	0	0	0	0	0	506	512	508	31	0	
13	0	0	0	0	0	503	510	512	32	0	
14	0	0	0	0	0	503	510	513	32	0	
15	0	0	0	0	0	503	513	513	31	0	
0	0	0	0	0	0	505	514	511	31	0	
1	0	0	0	0	2	505	515	510	31	0	
2	0	0	0	0	0	505	514	510	31	0	
3	0	0	0	0	0	510	512	506	31	0	
4	0	0	0	0	0	511	512	506	31	0	
5	0	0	0	0	0	510	511	508	31	0	
6	0	0	0	0	0	506	513	515	32	0	
7	0	0	0	0	0	502	510	510	31	0	
8	0	0	0	0	0	504	508	507	32	0	
9	0	0	0	0	3	500	511	507	31	0	
