# OpenSignals Text File Format. Version 1
# {"98:D3:51:FE:6E:5C": {"position": 0, "device": "bitalino_rev", "device name": "98:D3:51:FE:6E:5C", "device connection": "BTH98:D3:51:FE:6E:5C", "sampling rate": 1000, "resolution": [4, 1, 1, 1, 1, 10, 10, 10, 10, 6, 6], "firmware version": 1282, "comments": "", "keywords": "", "mode": 0, "sync interval": 2, "date": "2026-6-12", "time": "12:53:24.790", "channels": [1, 2, 3, 4, 5, 6], "sensor": ["RAW", "RAW", "RAW", "RAW", "RAW", "RAW"], "label": ["A1", "A2", "A3", "A4", "A5", "A6"], "column": ["nSeq", "I1", "I2", "O1", "O2", "A1", "A2", "A3", "A4", "A5", "A6"], "special": [{}, {}, {}, {}, {}, {}], "digital IO": [0, 0, 1, 1]}}
# EndOfHeader
0	0	0	0	0	0	513	509	511	32	0	
1	0	0	0	0	0	510	511	511	32	0	
2	0	0	0	0	0	508	509	511	32	0	
3	0	0	0	0	0	508	510	511	32	0	
4	0	0	0	0	1	506	508	510	31	0	
5	0	0	0	0	0	506	509	511	32	0	
6	0	0	0	0	0	506	509	511	31	0	
7	0	0	0	0	0	508	511	511	32	0	
8	0	0	0	0	0	512	508	509	31	0	
9	0	0	0	0	0	515	510	511	32	0	
10	0	0	0	0	0	517	511	511	31	0	
11	0	0	0	0	0	520	511	512	32	0	
12	0	0	0	0	1	519	509	513	32	0	
13	0	0	0	0	0	519	510	512	31	0	
14	0	0	0	0	0	522	506	511	31	0	
15	0	0	0	0	0	519	510	512	31	0	
0	0	0	0	0	0	518	510	511	32	0	
1	0	0	0	0	0	515	512	513	32	0	
2	0	0	0	0	0	513	508	512	32	0	
3	0	0	0	0	0	507	510	512	31	0	
4	0	0	0	0	1	503	511	511	32	0	
5	0	0	0	0	0	505	510	512	32	0	
6	0	0	0	0	0	506	511	510	32	0	
7	0	0	0	0	0	505	510	508	31	0	
8	0	0	0	0	0	504	510	510	31	0	
9	0	0	0	0	0	508	509	511	31	0	
10	0	0	0	0	0	515	511	513	31	0	
11	0	0	0	0	0	519	511	512	31	0	
12	0	0	0	0	1	515	508	512	31	0	
13	0	0	0	0	0	518	509	511	32	0	
14	0	0	0	0	0	519	510	512	31	0	
15	0	0	0	0	0	522	509	512	32	0	
0	0	0	0	0	0	516	508	510	32	0	
1	0	0	0	0	0	513	511	509	31	0	
2	0	0	0	0	0	513	510	511	32	0	
3	0	0	0	0	0	509	510	510	32	0	
4	0	0	0	0	0	507	510	512	32	0	
5	0	0	0	0	0	505	511	513	32	0	
6	0	0	0	0	0	502	510	513	32	0	
7	0	0	0	0	0	505	512	515	32	0	
8	0	0	0	0	0	508	512	513	32	0	
9	0	0	0	0	0	508	509	511	32	0	
10	0	0	0	0	0	514	510	511	32	0	
11	0	0	0	0	0	519	510	511	32	0	
12	0	0	0	0	0	519	510	512	32	0	
13	0	0	0	0	0	525	511	511	32	0	
14	0	0	0	0	0	526	508	508	31	0	
15	0	0	0	0	0	522	508	508	31	0	
0	0	0	0	0	0	519	508	507	31	0	
1	0	0	0	0	0	518	509	507	31	0	
2	0	0	0	0	0	518	510	508	31	0	
3	0	0	0	0	0	518	509	507	31	0	
4	0	0	0	0	0	511	508	508	31	0	
5	0	0	0	0	0	507	508	507	31	0	
6	0	0	0	0	0	504	507	506	31	0	
7	0	0	0	0	0	507	506	509	31	0	
8	0	0	0	0	0	508	509	507	31	0	
9	0	0	0	0	0	510	506	509	31	0	
10	0	0	0	0	0	512	507	510	31	0	
11	0	0	0	0	0	509	509	511	31	0	
12	0	0	0	0	1	516	508	512	31	0	
13	0	0	0	0	0	518	511	511	31	0	
14	0	0	0	0	0	524	514	513	32	0	
15	0	0	0	0	0	520	510	512	32	0	
0	0	0	0	0	0	515	510	514	32	0	
1	0	0	0	0	0	515	508	515	32	0	
2	0	0	0	0	0	514	509	514	32	0	
3	0	0	0	0	0	510	512	513	32	0	
4	0	0	0	0	1	508	511	511	32	0	
5	0	0	0	0	0	508	511	511	32	0	
6	0	0	0	0	0	504	510	511	32	0	
7	0	0	0	0	0	504	509	509	32	0	
8	0	0	0	0	0	507	509	511	32	0	
9	0	0	0	0	0	509	511	510	31	0	
10	0	0	0	0	0	507	509	511	32	0	
11	0	0	0	0	0	512	511	513	32	0	
12	0	0	0	0	1	515	510	514	32	0	
13	0	0	0	0	0	515	510	512	32	0	
14	0	0	0	0	0	521	512	513	31	0	
15	0	0	0	0	0	518	512	513	32	0	
0	0	0	0	0	0	516	512	511	31	0	
1	0	0	0	0	0	517	509	511	31	0	
2	0	0	0	0	0	518	510	512	32	0	
3	0	0	0	0	0	514	508	511	32	0	
4	0	0	0	0	1	512	508	513	32	0	
5	0	0	0	0	0	510	509	512	31	0	
6	0	0	0	0	0	504	509	510	31	0	
7	0	0	0	0	0	501	508	509	31	0	
8	0	0	0	0	0	502	511	509	32	0	
9	0	0	0	0	0	501	508	509	31	0	
10	0	0	0	0	0	508	510	509	32	0	
11	0	0	0	0	0	509	511	509	32	0	
12	0	0	0	0	1	513	510	512	32	0	
13	0	0	0	0	0	517	510	509	31	0	
14	0	0	0	0	0	518	508	511	31	0	
15	0	0	0	0	0	522	509	512	31	0	
0	0	0	0	0	0	523	508	513	32	0	
1	0	0	0	0	0	524	510	512	32	0	
2	0	0	0	0	0	519	508	512	31	0	
3	0	0	0	0	0	516	508	510	32	0	
4	0	0	0	0	1	515	510	512	31	0	
5	0	0	0	0	0	512	510	512	32	0	
6	0	0	0	0	0	510	510	512	31	0	
7	0	0	0	0	0	504	511	508	31	0	
8	0	0	0	0	0	500	512	509	31	0	
9	0	0	0	0	0	504	512	512	32	0	
10	0	0	0	0	0	503	510	510	32	0	
11	0	0	0	0	0	507	508	509	32	0	
12	0	0	0	0	1	512	508	509	32	0	
13	0	0	0	0	0	515	508	511	32	0	
14	0	0	0	0	0	518	507	511	32	0	
15	0	0	0	0	0	520	511	509	32	0	
0	0	0	0	0	0	524	511	512	31	0	
1	0	0	0	0	0	521	510	512	31	0	
2	0	0	0	0	0	521	509	513	32	0	
3	0	0	0	0	0	516	510	513	32	0	
4	0	0	0	0	1	517	510	511	31	0	
5	0	0	0	0	0	516	510	513	31	0	
6	0	0	0	0	0	509	510	511	31	0	
7	0	0	0	0	0	510	509	509	32	0	
8	0	0	0	0	0	508	510	511	32	0	
9	0	0	0	0	0	508	508	510	32	0	
10	0	0	0	0	0	509	508	512	32	0	
11	0	0	0	0	0	509	508	509	31	0	
12	0	0	0	0	1	512	509	514	32	0	
13	0	0	0	0	0	513	509	512	32	0	
14	0	0	0	0	0	516	509	510	31	0	
15	0	0	0	0	0	521	510	513	31	0	
0	0	0	0	0	0	524	509	511	31	0	
1	0	0	0	0	0	520	511	512	31	0	
2	0	0	0	0	0	520	509	512	32	0	
3	0	0	0	0	0	519	510	510	31	0	
4	0	0	0	0	1	516	510	510	31	0	
5	0	0	0	0	0	515	510	509	31	0	
6	0	0	0	0	0	515	511	512	31	0	
7	0	0	0	0	0	508	510	511	32	0	
8	0	0	0	0	0	503	509	513	32	0	
9	0	0	0	0	0	505	510	511	32	0	
10	0	0	0	0	0	507	510	509	32	0	
11	0	0	0	0	0	510	511	508	31	0	
12	0	0	0	0	1	510	509	508	31	0	
13	0	0	0	0	0	512	510	511	32	0	
14	0	0	0	0	0	512	508	511	32	0	
15	0	0	0	0	0	518	508	514	32	0	
0	0	0	0	0	0	518	510	513	32	0	
1	0	0	0	0	0	518	509	512	32	0	
2	0	0	0	0	0	519	511	511	32	0	
3	0	0	0	0	0	519	509	512	32	0	
4	0	0	0	0	0	518	508	510	31	0	
5	0	0	0	0	0	515	510	511	31	0	
6	0	0	0	0	0	513	510	510	31	0	
7	0	0	0	0	0	512	510	511	32	0	
8	0	0	0	0	0	510	509	510	31	0	
9	0	0	0	0	0	510	511	511	32	0	
10	0	0	0	0	0	508	511	511	32	0	
11	0	0	0	0	0	507	509	512	31	0	
12	0	0	0	0	1	509	510	510	31	0	
13	0	0	0	0	0	509	511	510	32	0	
14	0	0	0	0	0	510	507	508	31	0	
15	0	0	0	0	0	511	509	508	32	0	
0	0	0	0	0	0	513	510	508	31	0	
1	0	0	0	0	0	519	511	511	31	0	
2	0	0	0	0	0	520	510	514	32	0	
3	0	0	0	0	0	520	508	514	31	0	
4	0	0	0	0	1	518	511	513	31	0	
5	0	0	0	0	0	514	511	511	32	0	
6	0	0	0	0	0	516	508	511	32	0	
7	0	0	0	0	0	509	510	512	31	0	
8	0	0	0	0	0	510	511	510	32	0	
9	0	0	0	0	0	506	510	510	32	0	
10	0	0	0	0	0	509	508	511	32	0	
11	0	0	0	0	0	508	509	509	32	0	
12	0	0	0	0	1	506	509	510	32	0	
13	0	0	0	0	0	508	508	510	32	0	
14	0	0	0	0	0	510	510	511	31	0	
15	0	0	0	0	0	513	509	510	32	0	
0	0	0	0	0	0	518	511	511	32	0	
1	0	0	0	0	0	518	509	510	31	0	
2	0	0	0	0	0	519	510	511	31	0	
3	0	0	0	0	0	519	511	512	31	0	
4	0	0	0	0	1	518	510	510	32	0	
5	0	0	0	0	0	519	511	510	31	0	
6	0	0	0	0	0	517	510	512	31	0	
7	0	0	0	0	0	511	509	511	32	0	
8	0	0	0	0	0	510	509	515	32	0	
9	0	0	0	0	0	506	507	512	32	0	
10	0	0	0	0	0	509	510	512	32	0	
11	0	0	0	0	0	505	509	510	31	0	
12	0	0	0	0	1	502	508	511	31	0	
13	0	0	0	0	0	506	513	508	31	0	
14	0	0	0	0	0	510	510	509	32	0	
15	0	0	0	0	0	511	509	509	31	0	
0	0	0	0	0	0	518	509	508	31	0	
1	0	0	0	0	0	518	510	511	32	0	
2	0	0	0	0	0	520	512	513	31	0	
3	0	0	0	0	0	524	511	512	32	0	
4	0	0	0	0	1	522	511	513	31	0	
5	0	0	0	0	0	519	509	512	31	0	
6	0	0	0	0	0	519	509	513	31	0	
7	0	0	0	0	0	514	509	511	32	0	
8	0	0	0	0	0	511	510	509	32	0	
9	0	0	0	0	0	509	510	510	32	0	
10	0	0	0	0	0	508	508	511	31	0	
11	0	0	0	0	0	506	510	510	32	0	
12	0	0	0	0	1	508	508	509	32	0	
13	0	0	0	0	0	506	509	511	32	0	
14	0	0	0	0	0	506	510	513	31	0	
15	0	0	0	0	0	506	510	511	32	0	
0	0	0	0	0	0	511	511	510	31	0	
1	0	0	0	0	0	515	510	512	31	0	
2	0	0	0	0	0	516	509	513	31	0	
3	0	0	0	0	0	520	510	513	31	0	
4	0	0	0	0	1	523	510	512	31	0	
5	0	0	0	0	0	520	510	511	31	0	
6	0	0	0	0	0	517	510	512	32	0	
7	0	0	0	0	0	513	511	510	32	0	
8	0	0	0	0	0	515	513	511	32	0	
9	0	0	0	0	0	512	508	510	32	0	
10	0	0	0	0	0	508	510	511	32	0	
11	0	0	0	0	0	505	508	511	32	0	
12	0	0	0	0	1	508	508	508	31	0	
13	0	0	0	0	0	508	510	509	31	0	
14	0	0	0	0	0	508	508	508	32	0	
15	0	0	0	0	0	508	508	511	32	0	
0	0	0	0	0	0	513	509	512	32	0	
1	0	0	0	0	0	513	510	512	32	0	
2	0	0	0	0	0	517	510	513	31	0	
3	0	0	0	0	0	520	511	512	31	0	
4	0	0	0	0	1	521	510	509	31	0	
5	0	0	0	0	0	519	510	510	32	0	
6	0	0	0	0	0	519	509	511	32	0	
7	0	0	0	0	0	523	510	511	32	0	
8	0	0	0	0	0	519	511	515	32	0	
9	0	0	0	0	0	519	511	513	32	0	
10	0	0	0	0	0	510	507	513	32	0	
11	0	0	0	0	0	508	510	511	32	0	
12	0	0	0	0	1	507	511	510	32	0	
13	0	0	0	0	0	503	510	513	31	0	
14	0	0	0	0	0	505	511	511	31	0	
15	0	0	0	0	0	507	510	507	31	0	
0	0	0	0	0	0	511	510	510	31	0	
1	0	0	0	0	0	513	512	510	31	0	
2	0	0	0	0	0	512	511	511	31	0	
3	0	0	0	0	0	517	512	511	31	0	
4	0	0	0	0	1	521	511	509	31	0	
5	0	0	0	0	0	519	510	511	32	0	
6	0	0	0	0	0	524	508	511	32	0	
7	0	0	0	0	0	519	508	513	32	0	
8	0	0	0	0	0	518	508	512	32	0	
9	0	0	0	0	0	515	510	513	32	0	
10	0	0	0	0	0	511	508	511	32	0	
11	0	0	0	0	0	509	509	512	32	0	
12	0	0	0	0	0	505	508	508	31	0	
13	0	0	0	0	0	506	509	510	31	0	
14	0	0	0	0	0	504	509	511	31	0	
15	0	0	0	0	0	507	509	508	32	0	
0	0	0	0	0	0	509	509	510	32	0	
1	0	0	0	0	0	508	510	509	31	0	
2	0	0	0	0	0	510	509	511	32	0	
3	0	0	0	0	0	518	509	512	32	0	
4	0	0	0	0	0	520	510	512	31	0	
5	0	0	0	0	0	519	512	513	31	0	
6	0	0	0	0	0	523	511	512	31	0	
7	0	0	0	0	0	521	510	511	31	0	
8	0	0	0	0	0	519	510	511	31	0	
9	0	0	0	0	0	519	511	512	32	0	
10	0	0	0	0	0	516	510	510	32	0	
11	0	0	0	0	0	512	510	511	32	0	
12	0	0	0	0	0	507	510	510	32	0	
13	0	0	0	0	0	507	509	510	32	0	
14	0	0	0	0	0	502	510	511	31	0	
15	0	0	0	0	0	505	512	512	32	0	
0	0	0	0	0	0	506	511	511	31	0	
1	0	0	0	0	0	508	509	511	31	0	
2	0	0	0	0	0	514	508	511	31	0	
3	0	0	0	0	0	515	508	513	32	0	
4	0	0	0	0	1	518	509	513	32	0	
5	0	0	0	0	0	519	512	513	32	0	
6	0	0	0	0	0	519	508	511	32	0	
7	0	0	0	0	0	523	508	511	31	0	
8	0	0	0	0	0	521	508	512	32	0	
9	0	0	0	0	0	515	510	511	32	0	
10	0	0	0	0	0	516	508	511	32	0	
11	0	0	0	0	0	513	510	512	32	0	
12	0	0	0	0	1	510	513	510	32	0	
13	0	0	0	0	0	509	513	510	31	0	
14	0	0	0	0	0	506	509	510	32	0	
15	0	0	0	0	0	504	509	510	32	0	
0	0	0	0	0	0	506	510	509	31	0	
1	0	0	0	0	0	504	508	510	32	0	
2	0	0	0	0	0	510	506	511	32	0	
3	0	0	0	0	0	510	508	510	31	0	
4	0	0	0	0	1	513	508	510	31	0	
5	0	0	0	0	0	515	511	512	31	0	
6	0	0	0	0	0	519	511	511	32	0	
7	0	0	0	0	0	519	508	512	32	0	
8	0	0	0	0	0	522	509	514	31	0	
9	0	0	0	0	0	519	511	513	32	0	
10	0	0	0	0	0	516	508	513	31	0	
11	0	0	0	0	0	515	509	512	31	0	
12	0	0	0	0	1	510	508	512	31	0	
13	0	0	0	0	0	510	512	511	32	0	
14	0	0	0	0	0	509	511	513	32	0	
15	0	0	0	0	0	506	510	513	31	0	
0	0	0	0	0	0	505	511	512	31	0	
1	0	0	0	0	0	504	508	510	32	0	
2	0	0	0	0	0	507	510	510	32	0	
3	0	0	0	0	0	508	508	509	31	0	
4	0	0	0	0	1	509	510	510	31	0	
5	0	0	0	0	0	510	510	510	31	0	
6	0	0	0	0	0	513	510	511	32	0	
7	0	0	0	0	0	518	510	510	32	0	
8	0	0	0	0	0	520	511	510	31	0	
9	0	0	0	0	0	518	508	510	31	0	
10	0	0	0	0	0	519	509	510	31	0	
11	0	0	0	0	0	518	509	510	32	0	
12	0	0	0	0	1	518	511	511	32	0	
13	0	0	0	0	0	514	509	510	32	0	
14	0	0	0	0	0	509	511	512	31	0	
15	0	0	0	0	0	505	509	510	31	0	
0	0	0	0	0	0	507	511	509	31	0	
1	0	0	0	0	0	507	509	511	32	0	
2	0	0	0	0	0	510	509	511	32	0	
3	0	0	0	0	0	511	510	511	32	0	
4	0	0	0	0	1	513	509	510	32	0	
5	0	0	0	0	0	518	508	511	32	0	
6	0	0	0	0	0	522	509	510	32	0	
7	0	0	0	0	0	519	509	510	31	0	
8	0	0	0	0	0	518	511	508	31	0	
9	0	0	0	0	0	523	509	512	32	0	
10	0	0	0	0	0	519	509	511	32	0	
11	0	0	0	0	0	517	510	513	32	0	
12	0	0	0	0	1	514	511	515	32	0	
13	0	0	0	0	0	513	509	512	32	0	
14	0	0	0	0	0	514	509	510	32	0	
15	0	0	0	0	0	508	510	511	31	0	
0	0	0	0	0	0	503	509	511	32	0	
1	0	0	0	0	0	504	510	512	32	0	
2	0	0	0	0	0	502	508	511	31	0	
3	0	0	0	0	0	508	510	512	31	0	
4	0	0	0	0	1	509	510	510	31	0	
5	0	0	0	0	0	512	511	511	31	0	
6	0	0	0	0	0	513	511	510	32	0	
7	0	0	0	0	0	518	510	509	31	0	
8	0	0	0	0	0	520	509	512	32	0	
9	0	0	0	0	0	520	511	511	32	0	
10	0	0	0	0	0	523	510	510	32	0	
11	0	0	0	0	0	519	510	509	32	0	
12	0	0	0	0	1	521	507	512	32	0	
13	0	0	0	0	0	517	508	512	32	0	
14	0	0	0	0	0	513	508	513	31	0	
15	0	0	0	0	0	512	508	510	31	0	
0	0	0	0	0	0	509	508	509	32	0	
1	0	0	0	0	0	508	510	508	31	0	
2	0	0	0	0	0	506	511	511	32	0	
3	0	0	0	0	0	507	511	508	31	0	
4	0	0	0	0	1	508	510	512	32	0	
5	0	0	0	0	0	510	510	511	32	0	
6	0	0	0	0	0	514	507	511	31	0	
7	0	0	0	0	0	519	510	512	32	0	
8	0	0	0	0	0	519	509	512	31	0	
9	0	0	0	0	0	521	512	513	31	0	
10	0	0	0	0	0	521	511	510	32	0	
11	0	0	0	0	0	516	511	511	31	0	
12	0	0	0	0	0	518	510	512	31	0	
13	0	0	0	0	0	516	510	513	31	0	
14	0	0	0	0	0	510	509	511	31	0	
15	0	0	0	0	0	508	508	513	32	0	
0	0	0	0	0	0	508	508	513	32	0	
1	0	0	0	0	0	508	508	511	32	0	
2	0	0	0	0	0	503	511	509	32	0	
3	0	0	0	0	0	504	511	511	32	0	
4	0	0	0	0	1	505	511	512	32	0	
5	0	0	0	0	0	508	508	510	32	0	
6	0	0	0	0	0	515	510	512	31	0	
7	0	0	0	0	0	512	509	511	31	0	
8	0	0	0	0	0	517	510	510	32	0	
9	0	0	0	0	0	519	510	510	31	0	
10	0	0	0	0	0	519	512	511	31	0	
11	0	0	0	0	0	523	510	510	31	0	
12	0	0	0	0	1	518	510	513	32	0	
13	0	0	0	0	0	517	509	514	32	0	
14	0	0	0	0	0	517	510	515	32	0	
15	0	0	0	0	0	514	509	512	32	0	
0	0	0	0	0	0	510	510	511	32	0	
1	0	0	0	0	0	508	510	510	31	0	
2	0	0	0	0	0	506	512	509	31	0	
3	0	0	0	0	0	506	510	509	31	0	
4	0	0	0	0	1	504	508	511	31	0	
5	0	0	0	0	0	507	509	511	31	0	
6	0	0	0	0	0	510	508	512	32	0	
7	0	0	0	0	0	512	508	513	32	0	
8	0	0	0	0	0	515	509	512	32	0	
9	0	0	0	0	0	515	511	510	32	0	
10	0	0	0	0	0	520	511	512	32	0	
11	0	0	0	0	0	522	509	512	31	0	
12	0	0	0	0	1	522	510	512	31	0	
13	0	0	0	0	0	521	507	513	32	0	
14	0	0	0	0	0	519	510	511	32	0	
15	0	0	0	0	0	517	510	513	31	0	
0	0	0	0	0	0	513	508	514	32	0	
1	0	0	0	0	0	511	509	514	31	0	
2	0	0	0	0	0	506	509	511	32	0	
3	0	0	0	0	0	502	510	510	32	0	
4	0	0	0	0	1	507	510	512	32	0	
5	0	0	0	0	0	505	511	510	32	0	
6	0	0	0	0	0	508	511	512	32	0	
7	0	0	0	0	0	509	511	511	31	0	
8	0	0	0	0	0	514	509	511	32	0	
9	0	0	0	0	0	516	509	511	31	0	
10	0	0	0	0	0	519	508	513	32	0	
11	0	0	0	0	0	521	508	510	32	0	
12	0	0	0	0	1	521	512	508	32	0	
13	0	0	0	0	0	519	510	513	31	0	
14	0	0	0	0	0	518	509	515	32	0	
15	0	0	0	0	0	516	509	512	31	0	
0	0	0	0	0	0	515	508	511	32	0	
1	0	0	0	0	0	513	508	509	32	0	
2	0	0	0	0	0	509	509	510	31	0	
3	0	0	0	0	0	504	511	509	31	0	
4	0	0	0	0	1	504	511	509	31	0	
5	0	0	0	0	0	505	511	510	31	0	
6	0	0	0	0	0	507	510	510	32	0	
7	0	0	0	0	0	504	509	511	32	0	
8	0	0	0	0	0	510	508	511	32	0	
9	0	0	0	0	0	512	508	512	32	0	
10	0	0	0	0	0	517	510	509	32	0	
11	0	0	0	0	0	521	511	510	31	0	
12	0	0	0	0	1	524	511	510	31	0	
13	0	0	0	0	0	524	509	509	31	0	
14	0	0	0	0	0	522	510	514	32	0	
15	0	0	0	0	0	519	511	513	31	0	
0	0	0	0	0	0	520	510	513	32	0	
1	0	0	0	0	0	515	508	510	31	0	
2	0	0	0	0	0	512	510	510	31	0	
3	0	0	0	0	0	509	511	510	31	0	
4	0	0	0	0	1	505	509	511	32	0	
5	0	0	0	0	0	509	509	511	32	0	
6	0	0	0	0	0	506	510	510	32	0	
7	0	0	0	0	0	507	510	511	31	0	
8	0	0	0	0	0	510	512	510	32	0	
9	0	0	0	0	0	512	510	512	31	0	
10	0	0	0	0	0	516	511	511	32	0	
11	0	0	0	0	0	514	511	510	32	0	
12	0	0	0	0	1	518	509	511	32	0	
13	0	0	0	0	0	521	511	510	32	0	
14	0	0	0	0	0	524	509	511	32	0	
15	0	0	0	0	0	521	508	512	32	0	
0	0	0	0	0	0	517	508	514	32	0	
1	0	0	0	0	0	515	508	512	31	0	
2	0	0	0	0	0	510	511	511	31	0	
3	0	0	0	0	0	510	509	512	32	0	
4	0	0	0	0	1	510	510	510	32	0	
5	0	0	0	0	0	507	508	509	31	0	
6	0	0	0	0	0	507	510	511	32	0	
7	0	0	0	0	0	504	510	510	31	0	
8	0	0	0	0	0	507	509	511	32	0	
9	0	0	0	0	0	510	509	511	32	0	
10	0	0	0	0	0	512	510	512	32	0	
11	0	0	0	0	0	514	509	510	32	0	
12	0	0	0	0	1	516	508	511	32	0	
13	0	0	0	0	0	523	509	512	32	0	
14	0	0	0	0	0	523	509	512	32	0	
15	0	0	0	0	0	520	509	510	32	0	
0	0	0	0	0	0	519	511	512	32	0	
1	0	0	0	0	0	515	509	510	31	0	
2	0	0	0	0	0	515	510	511	31	0	
3	0	0	0	0	0	508	511	511	32	0	
4	0	0	0	0	1	510	512	509	31	0	
5	0	0	0	0	0	508	509	509	32	0	
6	0	0	0	0	0	504	511	511	31	0	
7	0	0	0	0	0	501	511	510	32	0	
8	0	0	0	0	0	501	510	511	31	0	
9	0	0	0	0	0	507	510	511	31	0	
10	0	0	0	0	0	508	509	512	31	0	
11	0	0	0	0	0	512	510	513	32	0	
12	0	0	0	0	0	519	511	511	31	0	
13	0	0	0	0	0	522	508	511	32	0	
14	0	0	0	0	0	520	508	512	32	0	
15	0	0	0	0	0	519	511	511	32	0	
0	0	0	0	0	0	518	508	512	31	0	
1	0	0	0	0	0	515	509	508	32	0	
2	0	0	0	0	0	511	510	510	32	0	
3	0	0	0	0	0	510	508	511	32	0	
4	0	0	0	0	0	510	509	511	32	0	
5	0	0	0	0	0	507	508	512	32	0	
6	0	0	0	0	0	508	509	510	31	0	
7	0	0	0	0	0	507	509	511	31	0	
8	0	0	0	0	0	507	510	510	32	0	
9	0	0	0	0	0	509	512	512	31	0	
10	0	0	0	0	0	516	510	512	32	0	
11	0	0	0	0	0	515	511	513	32	0	
12	0	0	0	0	0	518	512	511	32	0	
13	0	0	0	0	0	521	509	510	32	0	
14	0	0	0	0	0	525	511	512	32	0	
15	0	0	0	0	0	527	511	512	31	0	
0	0	0	0	0	0	522	508	513	31	0	
1	0	0	0	0	0	519	510	511	31	0	
2	0	0	0	0	0	515	510	511	31	0	
3	0	0	0	0	0	514	508	512	32	0	
4	0	0	0	0	1	511	509	511	32	0	
5	0	0	0	0	0	508	507	512	32	0	
6	0	0	0	0	0	505	511	509	31	0	
7	0	0	0	0	0	506	509	509	32	0	
8	0	0	0	0	0	505	511	511	32	0	
9	0	0	0	0	0	505	509	510	32	0	
10	0	0	0	0	0	506	508	511	32	0	
11	0	0	0	0	0	511	508	513	31	0	
12	0	0	0	0	1	513	510	512	31	0	
13	0	0	0	0	0	519	509	512	32	0	
14	0	0	0	0	0	518	512	512	32	0	
15	0	0	0	0	0	523	509	511	32	0	
0	0	0	0	0	0	526	511	512	32	0	
1	0	0	0	0	0	521	509	512	31	0	
2	0	0	0	0	0	519	513	511	32	0	
3	0	0	0	0	0	516	511	510	32	0	
4	0	0	0	0	1	515	509	511	32	0	
5	0	0	0	0	0	511	509	511	32	0	
6	0	0	0	0	0	508	507	510	31	0	
7	0	0	0	0	0	510	510	511	32	0	
8	0	0	0	0	0	504	510	508	31	0	
9	0	0	0	0	0	504	508	510	31	0	
10	0	0	0	0	0	502	510	511	31	0	
11	0	0	0	0	0	506	511	509	31	0	
12	0	0	0	0	1	510	510	511	31	0	
13	0	0	0	0	0	514	509	512	32	0	
14	0	0	0	0	0	515	510	511	32	0	
15	0	0	0	0	0	520	512	512	31	0	
0	0	0	0	0	0	519	510	511	31	0	
1	0	0	0	0	0	520	510	512	32	0	
2	0	0	0	0	0	518	510	511	31	0	
3	0	0	0	0	0	519	511	512	31	0	
4	0	0	0	0	1	515	511	511	32	0	
5	0	0	0	0	0	512	509	512	32	0	
6	0	0	0	0	0	508	509	510	31	0	
7	0	0	0	0	0	508	510	508	31	0	
8	0	0	0	0	0	506	510	510	31	0	
9	0	0	0	0	0	507	511	510	31	0	
10	0	0	0	0	0	507	511	511	32	0	
11	0	0	0	0	0	504	511	509	32	0	
12	0	0	0	0	1	510	510	510	32	0	
13	0	0	0	0	0	514	508	510	32	0	
14	0	0	0	0	0	514	508	511	31	0	
15	0	0	0	0	0	518	509	512	32	0	
0	0	0	0	0	0	519	510	512	31	0	
1	0	0	0	0	0	522	512	513	31	0	
2	0	0	0	0	0	520	510	513	31	0	
3	0	0	0	0	0	521	512	512	32	0	
4	0	0	0	0	1	519	512	513	31	0	
5	0	0	0	0	0	512	513	511	31	0	
6	0	0	0	0	0	513	507	512	31	0	
7	0	0	0	0	0	509	507	511	32	0	
8	0	0	0	0	0	512	506	510	32	0	
9	0	0	0	0	0	506	509	511	32	0	
10	0	0	0	0	0	504	509	510	32	0	
11	0	0	0	0	0	507	510	510	31	0	
12	0	0	0	0	1	510	510	510	32	0	
13	0	0	0	0	0	513	510	512	31	0	
14	0	0	0	0	0	518	510	512	31	0	
15	0	0	0	0	0	516	510	511	32	0	
0	0	0	0	0	0	518	509	511	32	0	
1	0	0	0	0	0	522	508	513	31	0	
2	0	0	0	0	0	524	507	511	31	0	
3	0	0	0	0	0	521	511	511	32	0	
4	0	0	0	0	1	521	511	512	31	0	
5	0	0	0	0	0	517	508	510	31	0	
6	0	0	0	0	0	515	509	510	32	0	
7	0	0	0	0	0	513	507	512	32	0	
8	0	0	0	0	0	511	510	511	32	0	
9	0	0	0	0	0	505	511	513	31	0	
10	0	0	0	0	0	501	510	511	32	0	
11	0	0	0	0	0	503	512	511	31	0	
12	0	0	0	0	1	504	511	510	31	0	
13	0	0	0	0	0	508	510	511	31	0	
14	0	0	0	0	0	511	511	510	31	0	
15	0	0	0	0	0	517	509	511	31	0	
0	0	0	0	0	0	518	509	512	32	0	
1	0	0	0	0	0	519	508	513	32	0	
2	0	0	0	0	0	519	508	510	32	0	
3	0	0	0	0	0	519	508	511	31	0	
4	0	0	0	0	0	520	507	513	32	0	
5	0	0	0	0	0	519	510	514	32	0	
6	0	0	0	0	0	518	509	513	31	0	
7	0	0	0	0	0	513	511	510	32	0	
8	0	0	0	0	0	508	508	510	32	0	
9	0	0	0	0	0	510	508	511	31	0	
10	0	0	0	0	0	510	511	510	32	0	
11	0	0	0	0	0	504	508	511	32	0	
12	0	0	0	0	0	502	508	510	31	0	
13	0	0	0	0	0	507	508	511	32	0	
14	0	0	0	0	0	508	510	512	31	0	
15	0	0	0	0	0	510	512	511	31	0	
0	0	0	0	0	0	516	513	512	31	0	
1	0	0	0	0	0	517	510	508	31	0	
2	0	0	0	0	0	516	509	511	31	0	
3	0	0	0	0	0	519	512	513	31	0	
4	0	0	0	0	0	521	509	512	31	0	
5	0	0	0	0	0	521	510	513	32	0	
6	0	0	0	0	0	514	508	511	32	0	
7	0	0	0	0	0	513	508	510	31	0	
8	0	0	0	0	0	512	509	510	32	0	
9	0	0	0	0	0	508	510	512	31	0	
10	0	0	0	0	0	504	511	510	31	0	
11	0	0	0	0	0	503	511	511	31	0	
12	0	0	0	0	1	503	510	509	32	0	
13	0	0	0	0	0	502	509	510	32	0	
14	0	0	0	0	0	509	509	509	31	0	
15	0	0	0	0	0	509	507	507	31	0	
0	0	0	0	0	0	515	508	510	31	0	
1	0	0	0	0	0	519	510	513	31	0	
2	0	0	0	0	0	525	508	513	32	0	
3	0	0	0	0	0	526	508	511	31	0	
4	0	0	0	0	1	524	508	513	32	0	
5	0	0	0	0	0	521	509	510	32	0	
6	0	0	0	0	0	520	508	511	31	0	
7	0	0	0	0	0	516	510	512	32	0	
8	0	0	0	0	0	512	508	512	31	0	
9	0	0	0	0	0	508	509	512	32	0	
10	0	0	0	0	0	505	510	512	32	0	
11	0	0	0	0	0	505	512	513	32	0	
12	0	0	0	0	1	501	510	511	32	0	
13	0	0	0	0	0	503	511	511	32	0	
14	0	0	0	0	0	509	511	507	31	0	
15	0	0	0	0	0	510	510	509	31	0	
0	0	0	0	0	0	515	510	509	31	0	
1	0	0	0	0	0	515	508	511	32	0	
2	0	0	0	0	0	517	512	511	32	0	
3	0	0	0	0	0	520	510	512	32	0	
4	0	0	0	0	1	519	507	508	31	0	
5	0	0	0	0	0	521	511	512	32	0	
6	0	0	0	0	0	517	509	512	32	0	
7	0	0	0	0	0	519	511	513	31	0	
8	0	0	0	0	0	518	512	513	31	0	
9	0	0	0	0	0	512	512	512	32	0	
10	0	0	0	0	0	509	511	514	31	0	
11	0	0	0	0	0	510	512	512	31	0	
12	0	0	0	0	1	509	509	510	32	0	
13	0	0	0	0	0	508	509	510	32	0	
14	0	0	0	0	0	503	507	509	32	0	
15	0	0	0	0	0	509	509	512	32	0	
0	0	0	0	0	0	510	508	510	32	0	
1	0	0	0	0	0	513	510	511	32	0	
2	0	0	0	0	0	515	510	509	31	0	
3	0	0	0	0	0	514	510	511	31	0	
4	0	0	0	0	1	522	510	512	32	0	
5	0	0	0	0	0	523	511	513	31	0	
6	0	0	0	0	0	521	510	511	31	0	
7	0	0	0	0	0	516	511	510	32	0	
8	0	0	0	0	0	513	511	511	32	0	
9	0	0	0	0	0	515	511	513	32	0	
10	0	0	0	0	0	511	509	511	31	0	
11	0	0	0	0	0	512	511	508	31	0	
12	0	0	0	0	1	508	510	510	31	0	
13	0	0	0	0	0	506	509	513	31	0	
14	0	0	0	0	0	505	510	512	32	0	
15	0	0	0	0	0	507	508	509	32	0	
0	0	0	0	0	0	506	510	510	32	0	
1	0	0	0	0	0	508	511	512	31	0	
2	0	0	0	0	0	513	509	508	31	0	
3	0	0	0	0	0	515	509	512	32	0	
4	0	0	0	0	1	517	509	512	32	0	
5	0	0	0	0	0	522	508	512	32	0	
6	0	0	0	0	0	524	508	513	32	0	
7	0	0	0	0	0	522	507	512	32	0	
8	0	0	0	0	0	521	508	511	32	0	
9	0	0	0	0	0	515	510	511	32	0	
10	0	0	0	0	0	516	510	514	32	0	
11	0	0	0	0	0	514	509	511	31	0	
12	0	0	0	0	1	507	511	510	31	0	
13	0	0	0	0	0	502	510	508	31	0	
14	0	0	0	0	0	501	511	509	31	0	
15	0	0	0	0	0	505	512	511	31	0	
0	0	0	0	0	0	505	511	510	32	0	
1	0	0	0	0	0	509	507	509	31	0	
2	0	0	0	0	0	511	508	509	32	0	
3	0	0	0	0	0	519	508	510	31	0	
4	0	0	0	0	1	524	508	510	32	0	
5	0	0	0	0	0	523	508	511	32	0	
6	0	0	0	0	0	519	510	512	31	0	
7	0	0	0	0	0	519	512	513	32	0	
8	0	0	0	0	0	519	510	513	32	0	
9	0	0	0	0	0	519	508	513	31	0	
10	0	0	0	0	0	514	508	511	32	0	
11	0	0	0	0	0	514	509	513	31	0	
12	0	0	0	0	1	508	511	510	32	0	
13	0	0	0	0	0	502	511	510	31	0	
14	0	0	0	0	0	507	510	512	31	0	
15	0	0	0	0	0	505	510	511	32	0	
0	0	0	0	0	0	509	510	510	32	0	
1	0	0	0	0	0	508	507	510	31	0	
2	0	0	0	0	0	509	509	510	32	0	
3	0	0	0	0	0	514	511	510	32	0	
4	0	0	0	0	0	514	512	512	32	0	
5	0	0	0	0	0	519	510	512	31	0	
6	0	0	0	0	0	521	509	512	31	0	
7	0	0	0	0	0	524	507	512	31	0	
8	0	0	0	0	0	521	508	511	31	0	
9	0	0	0	0	0	518	510	510	32	0	
10	0	0	0	0	0	516	512	510	31	0	
11	0	0	0	0	0	515	509	512	31	0	
12	0	0	0	0	0	514	509	513	31	0	
13	0	0	0	0	0	509	508	511	31	0	
14	0	0	0	0	0	508	509	510	32	0	
15	0	0	0	0	0	505	509	509	32	0	
0	0	0	0	0	0	504	510	509	32	0	
1	0	0	0	0	0	505	510	510	31	0	
2	0	0	0	0	0	508	510	510	32	0	
3	0	0	0	0	0	509	509	509	31	0	
4	0	0	0	0	0	513	509	510	31	0	
5	0	0	0	0	0	519	511	512	32	0	
6	0	0	0	0	0	523	512	515	32	0	
7	0	0	0	0	0	526	511	515	32	0	
8	0	0	0	0	0	524	511	512	31	0	
9	0	0	0	0	0	518	509	510	31	0	
10	0	0	0	0	0	519	510	512	32	0	
11	0	0	0	0	0	518	510	510	31	0	
12	0	0	0	0	1	513	509	511	32	0	
13	0	0	0	0	0	510	508	512	31	0	
14	0	0	0	0	0	506	508	511	31	0	
15	0	0	0	0	0	506	508	511	32	0	
0	0	0	0	0	0	508	509	510	31	0	
1	0	0	0	0	0	510	509	511	32	0	
2	0	0	0	0	0	502	507	511	32	0	
3	0	0	0	0	0	505	511	510	31	0	
4	0	0	0	0	1	505	510	510	31	0	
5	0	0	0	0	0	511	512	510	31	0	
6	0	0	0	0	0	518	512	510	31	0	
7	0	0	0	0	0	523	512	512	31	0	
8	0	0	0	0	0	521	508	511	31	0	
9	0	0	0	0	0	523	511	512	32	0	
10	0	0	0	0	0	519	509	512	31	0	
11	0	0	0	0	0	518	510	513	32	0	
12	0	0	0	0	1	514	509	512	32	0	
13	0	0	0	0	0	516	509	514	31	0	
14	0	0	0	0	0	512	508	514	32	0	
15	0	0	0	0	0	507	510	513	32	0	
0	0	0	0	0	0	505	510	512	32	0	
1	0	0	0	0	0	505	510	511	32	0	
2	0	0	0	0	0	504	510	508	32	0	
3	0	0	0	0	0	510	510	510	31	0	
4	0	0	0	0	1	509	510	509	31	0	
5	0	0	0	0	0	513	508	509	31	0	
6	0	0	0	0	0	515	508	511	32	0	
7	0	0	0	0	0	516	510	510	32	0	
8	0	0	0	0	0	520	510	512	31	0	
9	0	0	0	0	0	519	511	510	31	0	
10	0	0	0	0	0	521	512	511	31	0	
11	0	0	0	0	0	518	511	511	32	0	
12	0	0	0	0	1	515	510	509	31	0	
13	0	0	0	0	0	511	510	511	31	0	
14	0	0	0	0	0	511	511	509	31	0	
15	0	0	0	0	0	504	506	510	32	0	
0	0	0	0	0	0	506	509	511	32	0	
1	0	0	0	0	0	505	508	511	31	0	
2	0	0	0	0	0	505	509	509	32	0	
3	0	0	0	0	0	503	509	509	31	0	
4	0	0	0	0	1	508	511	510	31	0	
5	0	0	0	0	0	511	510	511	31	0	
6	0	0	0	0	0	514	509	512	32	0	
7	0	0	0	0	0	518	509	513	32	0	
8	0	0	0	0	0	518	508	512	32	0	
9	0	0	0	0	0	524	509	511	32	0	
10	0	0	0	0	0	523	510	514	32	0	
11	0	0	0	0	0	523	509	513	31	0	
12	0	0	0	0	1	519	510	513	31	0	
13	0	0	0	0	0	518	508	512	32	0	
14	0	0	0	0	0	515	510	510	32	0	
15	0	0	0	0	0	509	511	509	32	0	
0	0	0	0	0	0	508	510	509	31	0	
1	0	0	0	0	0	500	510	512	32	0	
2	0	0	0	0	0	505	511	512	32	0	
3	0	0	0	0	0	505	510	509	32	0	
4	0	0	0	0	1	508	511	510	32	0	
5	0	0	0	0	0	508	511	510	32	0	
6	0	0	0	0	0	512	511	512	31	0	
7	0	0	0	0	0	516	508	514	31	0	
8	0	0	0	0	0	521	510	513	32	0	
9	0	0	0	0	0	521	511	510	32	0	
10	0	0	0	0	0	519	509	511	32	0	
11	0	0	0	0	0	516	509	510	32	0	
12	0	0	0	0	1	517	512	511	32	0	
13	0	0	0	0	0	518	509	512	31	0	
14	0	0	0	0	0	519	510	512	31	0	
15	0	0	0	0	0	513	511	510	31	0	
0	0	0	0	0	0	510	510	510	32	0	
1	0	0	0	0	0	508	509	511	32	0	
2	0	0	0	0	0	506	510	512	32	0	
3	0	0	0	0	0	506	510	510	31	0	
4	0	0	0	0	1	505	508	510	32	0	
5	0	0	0	0	0	510	510	511	31	0	
6	0	0	0	0	0	511	510	511	31	0	
7	0	0	0	0	0	512	509	510	31	0	
8	0	0	0	0	0	513	510	511	32	0	
9	0	0	0	0	0	519	509	512	32	0	
10	0	0	0	0	0	519	510	511	32	0	
11	0	0	0	0	0	524	508	512	31	0	
12	0	0	0	0	1	520	509	513	32	0	
13	0	0	0	0	0	520	509	513	31	0	
14	0	0	0	0	0	520	509	512	31	0	
15	0	0	0	0	0	513	512	513	31	0	
0	0	0	0	0	0	512	511	512	31	0	
1	0	0	0	0	0	508	510	513	32	0	
2	0	0	0	0	0	508	510	512	32	0	
3	0	0	0	0	0	503	508	510	32	0	
4	0	0	0	0	0	504	509	511	31	0	
5	0	0	0	0	0	504	508	510	32	0	
6	0	0	0	0	0	507	509	510	32	0	
7	0	0	0	0	0	512	510	509	32	0	
8	0	0	0	0	0	511	511	509	31	0	
9	0	0	0	0	0	519	508	511	32	0	
10	0	0	0	0	0	522	510	511	32	0	
11	0	0	0	0	0	523	509	515	32	0	
12	0	0	0	0	1	521	508	513	32	0	
13	0	0	0	0	0	520	510	511	32	0	
14	0	0	0	0	0	517	510	510	32	0	
15	0	0	0	0	0	518	510	511	32	0	
0	0	0	0	0	0	515	510	509	32	0	
1	0	0	0	0	0	508	509	510	31	0	
2	0	0	0	0	0	504	511	510	31	0	
3	0	0	0	0	0	505	510	511	32	0	
4	0	0	0	0	1	503	510	513	31	0	
5	0	0	0	0	0	502	509	512	31	0	
6	0	0	0	0	0	506	509	510	32	0	
7	0	0	0	0	0	512	512	511	31	0	
8	0	0	0	0	0	512	510	510	31	0	
9	0	0	0	0	0	515	508	510	31	0	
10	0	0	0	0	0	521	510	513	31	0	
11	0	0	0	0	0	522	511	512	31	0	
12	0	0	0	0	1	522	510	512	32	0	
13	0	0	0	0	0	523	510	514	32	0	
14	0	0	0	0	0	522	508	513	32	0	
15	0	0	0	0	0	519	509	512	32	0	
0	0	0	0	0	0	515	508	511	31	0	
1	0	0	0	0	0	514	508	511	32	0	
2	0	0	0	0	0	508	512	510	31	0	
3	0	0	0	0	0	509	511	508	32	0	
4	0	0	0	0	1	505	511	511	32	0	
5	0	0	0	0	0	505	508	510	32	0	
6	0	0	0	0	0	507	511	509	32	0	
7	0	0	0	0	0	508	508	510	32	0	
8	0	0	0	0	0	513	511	511	32	0	
9	0	0	0	0	0	513	513	511	31	0	
10	0	0	0	0	0	513	511	510	31	0	
11	0	0	0	0	0	517	509	511	32	0	
12	0	0	0	0	1	520	510	511	31	0	
13	0	0	0	0	0	521	508	512	31	0	
14	0	0	0	0	0	520	508	511	32	0	
15	0	0	0	0	0	519	510	511	32	0	
0	0	0	0	0	0	519	510	509	31	0	
1	0	0	0	0	0	517	511	513	31	0	
2	0	0	0	0	0	510	509	511	31	0	
3	0	0	0	0	0	504	511	510	31	0	
4	0	0	0	0	1	502	510	511	31	0	
5	0	0	0	0	0	504	510	512	32	0	
6	0	0	0	0	0	503	509	510	31	0	
7	0	0	0	0	0	507	508	510	32	0	
8	0	0	0	0	0	509	507	510	32	0	
9	0	0	0	0	0	507	510	511	32	0	
10	0	0	0	0	0	516	510	510	32	0	
11	0	0	0	0	0	519	511	511	31	0	
12	0	0	0	0	1	520	510	512	31	0	
13	0	0	0	0	0	521	509	510	31	0	
14	0	0	0	0	0	520	510	510	32	0	
15	0	0	0	0	0	518	508	512	32	0	
0	0	0	0	0	0	518	510	513	31	0	
1	0	0	0	0	0	519	510	514	32	0	
2	0	0	0	0	0	515	508	512	32	0	
3	0	0	0	0	0	508	507	513	31	0	
4	0	0	0	0	1	506	508	512	32	0	
5	0	0	0	0	0	505	510	511	32	0	
6	0	0	0	0	0	509	512	512	31	0	
7	0	0	0	0	0	507	511	510	32	0	
8	0	0	0	0	0	504	509	510	32	0	
9	0	0	0	0	0	508	509	510	31	0	
10	0	0	0	0	0	509	511	510	31	0	
11	0	0	0	0	0	512	512	509	31	0	
12	0	0	0	0	1	518	510	509	32	0	
13	0	0	0	0	0	519	511	512	31	0	
14	0	0	0	0	0	522	508	512	32	0	
15	0	0	0	0	0	521	508	511	31	0	
0	0	0	0	0	0	524	510	511	31	0	
1	0	0	0	0	0	523	509	512	31	0	
2	0	0	0	0	0	518	509	513	32	0	
3	0	0	0	0	0	513	511	511	32	0	
4	0	0	0	0	1	511	508	511	32	0	
5	0	0	0	0	0	506	508	511	32	0	
6	0	0	0	0	0	504	508	513	32	0	
7	0	0	0	0	0	501	510	513	32	0	
8	0	0	0	0	0	505	512	509	31	0	
9	0	0	0	0	0	507	512	511	31	0	
10	0	0	0	0	0	509	510	512	31	0	
11	0	0	0	0	0	514	511	514	31	0	
12	0	0	0	0	1	516	510	514	32	0	
13	0	0	0	0	0	519	511	514	32	0	
14	0	0	0	0	0	519	508	513	32	0	
15	0	0	0	0	0	520	509	514	32	0	
0	0	0	0	0	0	522	510	512	32	0	
1	0	0	0	0	0	519	510	510	32	0	
2	0	0	0	0	0	519	511	510	31	0	
3	0	0	0	0	0	514	509	512	32	0	
4	0	0	0	0	1	512	508	510	32	0	
5	0	0	0	0	0	511	510	510	32	0	
6	0	0	0	0	0	508	508	506	31	0	
7	0	0	0	0	0	502	508	504	31	0	
8	0	0	0	0	0	506	510	504	31	0	
9	0	0	0	0	0	508	510	504	31	0	
10	0	0	0	0	0	512	509	505	31	0	
11	0	0	0	0	0	511	508	508	31	0	
12	0	0	0	0	0	517	508	510	31	0	
13	0	0	0	0	0	519	510	511	31	0	
14	0	0	0	0	0	521	509	511	31	0	
15	0	0	0	0	0	524	508	513	31	0	
0	0	0	0	0	0	523	505	514	31	0	
1	0	0	0	0	0	521	507	513	31	0	
2	0	0	0	0	0	516	507	513	31	0	
3	0	0	0	0	0	515	511	512	32	0	
4	0	0	0	0	0	512	510	510	32	0	
5	0	0	0	0	0	507	511	511	32	0	
6	0	0	0	0	0	508	511	511	31	0	
7	0	0	0	0	0	507	513	513	32	0	
8	0	0	0	0	0	502	513	512	32	0	
9	0	0	0	0	0	502	511	511	32	0	
10	0	0	0	0	0	503	511	512	32	0	
11	0	0	0	0	0	509	510	512	32	0	
12	0	0	0	0	0	513	511	514	32	0	
13	0	0	0	0	0	515	510	514	32	0	
14	0	0	0	0	0	518	508	514	32	0	
15	0	0	0	0	0	519	510	514	32	0	
0	0	0	0	0	0	519	511	512	31	0	
1	0	0	0	0	0	518	509	511	32	0	
2	0	0	0	0	0	518	509	512	31	0	
3	0	0	0	0	0	517	508	512	31	0	
4	0	0	0	0	1	516	512	511	31	0	
5	0	0	0	0	0	510	510	512	32	0	
6	0	0	0	0	0	509	508	512	32	0	
7	0	0	0	0	0	505	509	510	32	0	
8	0	0	0	0	0	507	510	510	32	0	
9	0	0	0	0	0	503	509	510	31	0	
10	0	0	0	0	0	503	511	510	32	0	
11	0	0	0	0	0	507	512	511	32	0	
12	0	0	0	0	1	508	509	510	32	0	
13	0	0	0	0	0	515	511	508	31	0	
14	0	0	0	0	0	517	509	510	31	0	
15	0	0	0	0	0	520	510	512	32	0	
0	0	0	0	0	0	521	511	512	31	0	
1	0	0	0	0	0	522	509	511	32	0	
2	0	0	0	0	0	523	508	513	32	0	
3	0	0	0	0	0	520	508	511	31	0	
4	0	0	0	0	1	519	510	509	31	0	
5	0	0	0	0	0	515	513	511	31	0	
6	0	0	0	0	0	513	509	511	32	0	
7	0	0	0	0	0	510	510	510	32	0	
8	0	0	0	0	0	508	510	512	31	0	
9	0	0	0	0	0	507	508	510	32	0	
10	0	0	0	0	0	507	508	511	32	0	
11	0	0	0	0	0	507	509	510	32	0	
12	0	0	0	0	1	505	512	510	32	0	
13	0	0	0	0	0	507	509	510	32	0	
14	0	0	0	0	0	515	511	511	31	0	
15	0	0	0	0	0	519	510	509	31	0	
0	0	0	0	0	0	523	510	512	32	0	
1	0	0	0	0	0	524	509	514	32	0	
2	0	0	0	0	0	522	509	512	31	0	
3	0	0	0	0	0	519	511	509	32	0	
4	0	0	0	0	1	518	508	513	32	0	
5	0	0	0	0	0	517	509	511	32	0	
6	0	0	0	0	0	515	508	511	32	0	
7	0	0	0	0	0	512	509	512	31	0	
8	0	0	0	0	0	506	510	512	31	0	
9	0	0	0	0	0	505	509	511	31	0	
10	0	0	0	0	0	504	510	508	31	0	
11	0	0	0	0	0	502	511	511	32	0	
12	0	0	0	0	1	502	511	510	32	0	
13	0	0	0	0	0	506	510	510	32	0	
14	0	0	0	0	0	511	510	509	32	0	
15	0	0	0	0	0	515	508	510	32	0	
0	0	0	0	0	0	518	508	512	32	0	
1	0	0	0	0	0	522	508	513	32	0	
2	0	0	0	0	0	520	508	511	32	0	
3	0	0	0	0	0	523	510	513	31	0	
4	0	0	0	0	1	519	510	513	32	0	
5	0	0	0	0	0	521	509	513	31	0	
6	0	0	0	0	0	517	511	514	32	0	
7	0	0	0	0	0	512	511	513	32	0	
8	0	0	0	0	0	504	510	511	32	0	
9	0	0	0	0	0	505	509	508	31	0	
10	0	0	0	0	0	503	510	509	31	0	
11	0	0	0	0	0	505	510	510	32	0	
12	0	0	0	0	1	505	511	509	31	0	
13	0	0	0	0	0	509	511	510	31	0	
14	0	0	0	0	0	508	510	512	31	0	
15	0	0	0	0	0	514	510	511	31	0	
0	0	0	0	0	0	518	511	512	31	0	
1	0	0	0	0	0	518	508	510	31	0	
2	0	0	0	0	0	523	508	511	32	0	
3	0	0	0	0	0	524	508	512	31	0	
4	0	0	0	0	1	519	510	511	32	0	
5	0	0	0	0	0	518	510	511	32	0	
6	0	0	0	0	0	514	510	508	31	0	
7	0	0	0	0	0	511	510	511	31	0	
8	0	0	0	0	0	509	510	509	31	0	
9	0	0	0	0	0	508	511	511	31	0	
10	0	0	0	0	0	508	510	510	32	0	
11	0	0	0	0	0	504	509	508	31	0	
12	0	0	0	0	1	505	511	511	31	0	
13	0	0	0	0	0	508	509	511	32	0	
14	0	0	0	0	0	507	509	510	32	0	
15	0	0	0	0	0	510	509	511	32	0	
0	0	0	0	0	0	515	510	511	32	0	
1	0	0	0	0	0	515	508	512	32	0	
2	0	0	0	0	0	520	507	513	32	0	
3	0	0	0	0	0	521	510	511	32	0	
4	0	0	0	0	1	521	508	514	32	0	
5	0	0	0	0	0	523	511	514	31	0	
6	0	0	0	0	0	520	510	512	32	0	
7	0	0	0	0	0	515	510	510	31	0	
8	0	0	0	0	0	514	511	512	32	0	
9	0	0	0	0	0	511	508	511	31	0	
10	0	0	0	0	0	507	508	510	31	0	
11	0	0	0	0	0	507	511	511	32	0	
12	0	0	0	0	0	504	508	511	31	0	
13	0	0	0	0	0	502	511	511	31	0	
14	0	0	0	0	0	504	512	511	32	0	
15	0	0	0	0	0	507	510	510	32	0	
0	0	0	0	0	0	511	510	510	31	0	
1	0	0	0	0	0	516	512	509	31	0	
2	0	0	0	0	0	520	508	511	32	0	
3	0	0	0	0	0	520	511	511	31	0	
4	0	0	0	0	1	522	510	511	31	0	
5	0	0	0	0	0	521	510	511	32	0	
6	0	0	0	0	0	519	508	511	32	0	
7	0	0	0	0	0	517	510	512	32	0	
8	0	0	0	0	0	517	510	513	32	0	
9	0	0	0	0	0	513	510	511	31	0	
10	0	0	0	0	0	508	511	512	31	0	
11	0	0	0	0	0	507	511	512	31	0	
12	0	0	0	0	0	504	510	512	31	0	
13	0	0	0	0	0	506	510	510	32	0	
14	0	0	0	0	0	505	509	508	31	0	
15	0	0	0	0	0	507	510	508	31	0	
0	0	0	0	0	0	509	508	512	31	0	
1	0	0	0	0	0	516	509	512	32	0	
2	0	0	0	0	0	521	507	511	32	0	
3	0	0	0	0	0	518	511	509	32	0	
4	0	0	0	0	1	520	508	510	31	0	
5	0	0	0	0	0	521	508	509	31	0	
6	0	0	0	0	0	517	508	511	31	0	
7	0	0	0	0	0	515	510	512	32	0	
8	0	0	0	0	0	514	509	512	32	0	
9	0	0	0	0	0	515	511	513	32	0	
10	0	0	0	0	0	509	511	513	32	0	
11	0	0	0	0	0	511	512	511	31	0	
12	0	0	0	0	1	510	509	511	31	0	
13	0	0	0	0	0	506	510	510	31	0	
14	0	0	0	0	0	505	509	509	32	0	
15	0	0	0	0	0	504	509	509	32	0	
0	0	0	0	0	0	508	509	511	32	0	
1	0	0	0	0	0	511	510	512	31	0	
2	0	0	0	0	0	513	509	510	31	0	
3	0	0	0	0	0	515	507	511	31	0	
4	0	0	0	0	1	522	510	511	32	0	
5	0	0	0	0	0	522	508	511	32	0	
6	0	0	0	0	0	523	508	510	32	0	
7	0	0	0	0	0	521	508	514	31	0	
8	0	0	0	0	0	519	510	515	32	0	
9	0	0	0	0	0	515	508	512	32	0	
10	0	0	0	0	0	513	509	513	32	0	
11	0	0	0	0	0	511	508	510	32	0	
12	0	0	0	0	1	506	510	508	32	0	
13	0	0	0	0	0	508	511	510	31	0	
14	0	0	0	0	0	506	509	511	31	0	
15	0	0	0	0	0	508	512	510	31	0	
0	0	0	0	0	0	508	509	510	31	0	
1	0	0	0	0	0	512	511	508	32	0	
2	0	0	0	0	0	512	510	511	32	0	
3	0	0	0	0	0	516	507	512	32	0	
4	0	0	0	0	1	519	510	512	32	0	
5	0	0	0	0	0	519	508	510	32	0	
6	0	0	0	0	0	517	510	512	32	0	
7	0	0	0	0	0	520	510	513	32	0	
8	0	0	0	0	0	518	510	514	31	0	
9	0	0	0	0	0	516	509	512	31	0	
10	0	0	0	0	0	512	508	512	31	0	
11	0	0	0	0	0	508	510	510	31	0	
12	0	0	0	0	1	506	510	511	32	0	
13	0	0	0	0	0	502	508	509	32	0	
14	0	0	0	0	0	504	511	509	32	0	
15	0	0	0	0	0	504	510	510	32	0	
0	0	0	0	0	0	508	512	508	32	0	
1	0	0	0	0	0	511	512	510	31	0	
2	0	0	0	0	0	512	511	510	31	0	
3	0	0	0	0	0	519	509	512	32	0	
4	0	0	0	0	1	519	508	510	32	0	
5	0	0	0	0	0	521	509	509	32	0	
6	0	0	0	0	0	524	508	512	32	0	
7	0	0	0	0	0	526	507	512	32	0	
8	0	0	0	0	0	525	508	514	32	0	
9	0	0	0	0	0	519	506	513	32	0	
10	0	0	0	0	0	516	508	514	31	0	
11	0	0	0	0	0	518	509	511	32	0	
12	0	0	0	0	1	515	511	510	31	0	
13	0	0	0	0	0	509	512	510	32	0	
14	0	0	0	0	0	507	512	510	32	0	
15	0	0	0	0	0	505	509	511	31	0	
0	0	0	0	0	0	502	510	510	31	0	
1	0	0	0	0	0	504	508	508	31	0	
2	0	0	0	0	0	506	508	510	31	0	
3	0	0	0	0	0	509	511	512	32	0	
4	0	0	0	0	1	513	512	511	31	0	
5	0	0	0	0	0	516	511	512	32	0	
6	0	0	0	0	0	519	511	510	32	0	
7	0	0	0	0	0	517	509	511	31	0	
8	0	0	0	0	0	519	509	513	31	0	
9	0	0	0	0	0	515	509	512	31	0	
10	0	0	0	0	0	514	509	514	32	0	
11	0	0	0	0	0	513	511	511	32	0	
12	0	0	0	0	1	510	509	508	32	0	
13	0	0	0	0	0	507	507	510	32	0	
14	0	0	0	0	0	509	506	512	31	0	
15	0	0	0	0	0	507	508	511	32	0	
0	0	0	0	0	0	505	508	512	31	0	
1	0	0	0	0	0	506	509	511	31	0	
2	0	0	0	0	0	507	510	511	32	0	
3	0	0	0	0	0	509	510	512	32	0	
4	0	0	0	0	1	516	511	514	32	0	
5	0	0	0	0	0	516	511	510	32	0	
6	0	0	0	0	0	520	512	510	31	0	
7	0	0	0	0	0	523	510	511	32	0	
8	0	0	0	0	0	521	508	512	31	0	
9	0	0	0	0	0	519	508	510	32	0	
10	0	0	0	0	0	518	511	512	31	0	
11	0	0	0	0	0	517	510	513	31	0	
12	0	0	0	0	0	512	510	513	31	0	
13	0	0	0	0	0	510	510	509	31	0	
14	0	0	0	0	0	506	511	511	32	0	
15	0	0	0	0	0	506	510	511	32	0	
0	0	0	0	0	0	505	510	510	32	0	
1	0	0	0	0	0	507	509	509	32	0	
2	0	0	0	0	0	508	507	509	31	0	
3	0	0	0	0	0	509	509	512	31	0	
4	0	0	0	0	0	509	510	511	31	0	
5	0	0	0	0	0	513	512	510	32	0	
6	0	0	0	0	0	517	509	511	32	0	
7	0	0	0	0	0	519	509	512	31	0	
8	0	0	0	0	0	521	510	513	32	0	
9	0	0	0	0	0	520	515	513	31	0	
10	0	0	0	0	0	521	511	509	31	0	
11	0	0	0	0	0	518	510	512	32	0	
12	0	0	0	0	1	516	507	513	32	0	
13	0	0	0	0	0	513	508	511	32	0	
14	0	0	0	0	0	512	510	510	32	0	
15	0	0	0	0	0	512	509	511	31	0	
0	0	0	0	0	0	506	510	508	31	0	
1	0	0	0	0	0	506	511	510	32	0	
2	0	0	0	0	0	506	507	509	32	0	
3	0	0	0	0	0	509	508	510	32	0	
4	0	0	0	0	1	511	509	510	31	0	
5	0	0	0	0	0	514	510	512	32	0	
6	0	0	0	0	0	515	508	512	32	0	
7	0	0	0	0	0	519	508	512	32	0	
8	0	0	0	0	0	519	508	511	32	0	
9	0	0	0	0	0	523	509	513	32	0	
10	0	0	0	0	0	523	508	512	32	0	
11	0	0	0	0	0	519	510	511	31	0	
12	0	0	0	0	1	515	511	511	32	0	
13	0	0	0	0	0	515	511	511	32	0	
14	0	0	0	0	0	513	513	510	31	0	
15	0	0	0	0	0	509	512	509	32	0	
0	0	0	0	0	0	507	510	511	31	0	
1	0	0	0	0	0	504	510	511	32	0	
2	0	0	0	0	0	502	510	512	31	0	
3	0	0	0	0	0	501	509	511	32	0	
4	0	0	0	0	1	504	508	513	32	0	
5	0	0	0	0	0	508	509	511	31	0	
6	0	0	0	0	0	511	509	512	31	0	
7	0	0	0	0	0	512	510	511	32	0	
8	0	0	0	0	0	518	511	511	32	0	
9	0	0	0	0	0	523	509	512	32	0	
10	0	0	0	0	0	522	508	512	32	0	
11	0	0	0	0	0	520	508	511	32	0	
12	0	0	0	0	1	519	509	511	32	0	
13	0	0	0	0	0	519	509	509	32	0	
14	0	0	0	0	0	518	508	510	32	0	
15	0	0	0	0	0	514	511	510	31	0	
0	0	0	0	0	0	511	510	510	32	0	
1	0	0	0	0	0	506	511	512	31	0	
2	0	0	0	0	0	506	510	512	32	0	
3	0	0	0	0	0	504	508	512	32	0	
4	0	0	0	0	1	504	511	513	32	0	
5	0	0	0	0	0	510	508	515	32	0	
6	0	0	0	0	0	511	510	511	31	0	
7	0	0	0	0	0	509	510	513	31	0	
8	0	0	0	0	0	518	510	511	32	0	
9	0	0	0	0	0	520	509	509	31	0	
10	0	0	0	0	0	520	513	509	32	0	
11	0	0	0	0	0	523	509	510	31	0	
12	0	0	0	0	1	523	508	511	32	0	
13	0	0	0	0	0	521	510	513	32	0	
14	0	0	0	0	0	515	511	511	31	0	
15	0	0	0	0	0	513	512	511	32	0	
0	0	0	0	0	0	508	511	510	32	0	
1	0	0	0	0	0	507	508	507	31	0	
2	0	0	0	0	0	504	508	513	31	0	
3	0	0	0	0	0	504	508	512	31	0	
4	0	0	0	0	1	502	509	512	31	0	
5	0	0	0	0	0	508	510	510	32	0	
6	0	0	0	0	0	508	510	510	31	0	
7	0	0	0	0	0	512	511	510	32	0	
8	0	0	0	0	0	516	510	512	31	0	
9	0	0	0	0	0	517	511	512	31	0	
10	0	0	0	0	0	521	510	511	32	0	
11	0	0	0	0	0	523	509	512	32	0	
12	0	0	0	0	1	522	511	513	32	0	
13	0	0	0	0	0	519	509	513	31	0	
14	0	0	0	0	0	518	508	510	32	0	
15	0	0	0	0	0	516	509	509	32	0	
0	0	0	0	0	0	515	507	511	32	0	
1	0	0	0	0	0	510	509	511	31	0	
2	0	0	0	0	0	508	510	513	32	0	
3	0	0	0	0	0	503	511	511	31	0	
4	0	0	0	0	1	503	511	510	31	0	
5	0	0	0	0	0	507	511	511	32	0	
6	0	0	0	0	0	508	508	511	32	0	
7	0	0	0	0	0	512	508	511	32	0	
8	0	0	0	0	0	511	508	512	32	0	
9	0	0	0	0	0	516	509	511	31	0	
10	0	0	0	0	0	517	511	512	32	0	
11	0	0	0	0	0	519	511	510	31	0	
12	0	0	0	0	1	519	509	510	31	0	
13	0	0	0	0	0	521	508	512	31	0	
14	0	0	0	0	0	522	510	513	31	0	
15	0	0	0	0	0	518	508	515	32	0	
0	0	0	0	0	0	513	510	512	32	0	
1	0	0	0	0	0	509	509	513	31	0	
2	0	0	0	0	0	504	510	510	31	0	
3	0	0	0	0	0	504	511	511	32	0	
4	0	0	0	0	1	507	511	509	32	0	
5	0	0	0	0	0	507	511	509	31	0	
6	0	0	0	0	0	512	509	511	32	0	
7	0	0	0	0	0	507	510	508	31	0	
8	0	0	0	0	0	513	510	510	32	0	
9	0	0	0	0	0	518	508	511	32	0	
10	0	0	0	0	0	516	508	511	32	0	
11	0	0	0	0	0	519	513	510	31	0	
12	0	0	0	0	0	521	512	510	32	0	
13	0	0	0	0	0	522	510	512	32	0	
14	0	0	0	0	0	519	511	511	31	0	
15	0	0	0	0	0	519	511	511	32	0	
0	0	0	0	0	0	516	510	511	31	0	
1	0	0	0	0	0	515	509	512	32	0	
2	0	0	0	0	0	508	509	509	32	0	
3	0	0	0	0	0	505	511	508	32	0	
4	0	0	0	0	1	504	508	510	31	0	
5	0	0	0	0	0	504	509	509	31	0	
6	0	0	0	0	0	505	511	508	32	0	
7	0	0	0	0	0	508	509	508	31	0	
8	0	0	0	0	0	510	509	510	32	0	
9	0	0	0	0	0	508	508	511	32	0	
10	0	0	0	0	0	513	509	514	32	0	
11	0	0	0	0	0	519	510	514	32	0	
12	0	0	0	0	1	521	510	513	32	0	
13	0	0	0	0	0	521	510	510	32	0	
14	0	0	0	0	0	521	507	511	32	0	
15	0	0	0	0	0	520	507	511	32	0	
0	0	0	0	0	0	520	509	512	32	0	
1	0	0	0	0	0	516	508	510	32	0	
2	0	0	0	0	0	514	508	511	31	0	
3	0	0	0	0	0	505	510	510	31	0	
4	0	0	0	0	1	506	510	510	31	0	
5	0	0	0	0	0	504	511	511	32	0	
6	0	0	0	0	0	507	509	511	31	0	
7	0	0	0	0	0	508	512	510	31	0	
8	0	0	0	0	0	511	512	512	31	0	
9	0	0	0	0	0	510	511	513	32	0	
10	0	0	0	0	0	512	510	510	31	0	
11	0	0	0	0	0	518	510	514	31	0	
12	0	0	0	0	1	522	512	514	31	0	
13	0	0	0	0	0	523	510	514	32	0	
14	0	0	0	0	0	521	510	511	32	0	
15	0	0	0	0	0	523	512	512	32	0	
0	0	0	0	0	0	518	511	510	32	0	
1	0	0	0	0	0	515	507	511	32	0	
2	0	0	0	0	0	512	507	511	32	0	
3	0	0	0	0	0	509	509	511	32	0	
4	0	0	0	0	1	505	511	509	31	0	
5	0	0	0	0	0	504	510	511	31	0	
6	0	0	0	0	0	505	511	511	31	0	
7	0	0	0	0	0	504	510	512	31	0	
8	0	0	0	0	0	507	509	512	32	0	
9	0	0	0	0	0	507	510	513	31	0	
10	0	0	0	0	0	509	509	512	32	0	
11	0	0	0	0	0	515	509	511	32	0	
12	0	0	0	0	1	514	510	510	32	0	
13	0	0	0	0	0	519	509	512	32	0	
14	0	0	0	0	0	521	510	510	31	0	
15	0	0	0	0	0	520	510	513	32	0	
0	0	0	0	0	0	521	511	512	31	0	
1	0	0	0	0	0	522	512	513	32	0	
2	0	0	0	0	0	519	511	512	32	0	
3	0	0	0	0	0	515	510	508	31	0	
4	0	0	0	0	1	512	509	510	31	0	
5	0	0	0	0	0	506	509	509	32	0	
6	0	0	0	0	0	504	509	510	32	0	
7	0	0	0	0	0	500	509	510	32	0	
8	0	0	0	0	0	507	509	510	31	0	
9	0	0	0	0	0	510	510	510	31	0	
10	0	0	0	0	0	509	508	513	32	0	
11	0	0	0	0	0	513	510	511	32	0	
12	0	0	0	0	1	511	508	511	31	0	
13	0	0	0	0	0	518	509	513	32	0	
14	0	0	0	0	0	522	509	511	32	0	
15	0	0	0	0	0	522	510	513	31	0	
0	0	0	0	0	0	523	510	513	31	0	
1	0	0	0	0	0	519	512	510	32	0	
2	0	0	0	0	0	515	510	512	31	0	
3	0	0	0	0	0	513	511	513	32	0	
4	0	0	0	0	1	510	509	512	32	0	
5	0	0	0	0	0	507	509	512	32	0	
6	0	0	0	0	0	507	509	510	32	0	
7	0	0	0	0	0	503	511	513	32	0	
8	0	0	0	0	0	506	510	511	31	0	
9	0	0	0	0	0	507	511	510	32	0	
10	0	0	0	0	0	504	510	508	32	0	
11	0	0	0	0	0	510	509	509	32	0	
12	0	0	0	0	1	515	510	510	32	0	
13	0	0	0	0	0	517	510	513	31	0	
14	0	0	0	0	0	522	512	512	32	0	
15	0	0	0	0	0	519	508	512	32	0	
0	0	0	0	0	0	525	510	511	32	0	
1	0	0	0	0	0	520	508	512	31	0	
2	0	0	0	0	0	517	508	513	31	0	
3	0	0	0	0	0	517	509	508	31	0	
4	0	0	0	0	1	515	508	510	31	0	
5	0	0	0	0	0	512	510	512	32	0	
6	0	0	0	0	0	508	511	510	31	0	
7	0	0	0	0	0	504	511	512	31	0	
8	0	0	0	0	0	498	511	510	31	0	
9	0	0	0	0	0	502	511	510	31	0	
10	0	0	0	0	0	499	509	509	31	0	
11	0	0	0	0	0	505	511	509	32	0	
12	0	0	0	0	1	507	510	510	32	0	
13	0	0	0	0	0	510	508	512	32	0	
14	0	0	0	0	0	517	507	513	32	0	
15	0	0	0	0	0	522	508	515	32	0	
0	0	0	0	0	0	524	511	513	32	0	
1	0	0	0	0	0	527	510	513	32	0	
2	0	0	0	0	0	526	509	513	31	0	
3	0	0	0	0	0	521	510	511	31	0	
4	0	0	0	0	0	518	507	511	32	0	
5	0	0	0	0	0	515	509	509	32	0	
6	0	0	0	0	0	509	510	512	32	0	
7	0	0	0	0	0	506	509	510	32	0	
8	0	0	0	0	0	502	509	510	32	0	
9	0	0	0	0	0	500	512	511	31	0	
10	0	0	0	0	0	498	510	510	31	0	
11	0	0	0	0	0	501	512	508	31	0	
12	0	0	0	0	0	507	510	509	32	0	
13	0	0	0	0	0	511	511	510	31	0	
14	0	0	0	0	0	515	511	511	31	0	
15	0	0	0	0	0	517	511	511	32	0	
0	0	0	0	0	0	521	510	510	32	0	
1	0	0	0	0	0	523	509	512	32	0	
2	0	0	0	0	0	525	509	514	32	0	
3	0	0	0	0	0	520	508	513	32	0	
4	0	0	0	0	0	522	509	513	31	0	
5	0	0	0	0	0	515	510	511	31	0	
6	0	0	0	0	0	513	510	509	31	0	
7	0	0	0	0	0	508	511	511	31	0	
8	0	0	0	0	0	504	510	510	31	0	
9	0	0	0	0	0	504	510	510	32	0	
10	0	0	0	0	0	504	511	510	32	0	
11	0	0	0	0	0	506	510	512	31	0	
12	0	0	0	0	1	509	508	510	31	0	
13	0	0	0	0	0	510	510	508	31	0	
14	0	0	0	0	0	516	508	509	32	0	
15	0	0	0	0	0	521	510	509	31	0	
0	0	0	0	0	0	525	510	512	32	0	
1	0	0	0	0	0	524	512	515	31	0	
2	0	0	0	0	0	522	511	513	31	0	
3	0	0	0	0	0	524	510	513	32	0	
4	0	0	0	0	1	523	509	511	31	0	
5	0	0	0	0	0	520	509	512	32	0	
6	0	0	0	0	0	515	511	512	32	0	
7	0	0	0	0	0	511	510	509	31	0	
8	0	0	0	0	0	507	510	511	31	0	
9	0	0	0	0	0	506	509	509	31	0	
10	0	0	0	0	0	507	510	511	32	0	
11	0	0	0	0	0	507	510	510	32	0	
12	0	0	0	0	1	508	508	511	32	0	
13	0	0	0	0	0	512	508	510	32	0	
14	0	0	0	0	0	514	509	510	32	0	
15	0	0	0	0	0	515	511	509	32	0	
0	0	0	0	0	0	517	510	511	31	0	
1	0	0	0	0	0	519	508	511	31	0	
2	0	0	0	0	0	519	510	510	31	0	
3	0	0	0	0	0	521	508	514	31	0	
4	0	0	0	0	1	521	511	511	32	0	
5	0	0	0	0	0	519	510	512	31	0	
6	0	0	0	0	0	517	511	511	32	0	
7	0	0	0	0	0	515	508	512	32	0	
8	0	0	0	0	0	511	511	511	32	0	
9	0	0	0	0	0	506	510	511	31	0	
10	0	0	0	0	0	504	509	513	32	0	
11	0	0	0	0	0	505	509	512	32	0	
12	0	0	0	0	1	505	509	510	32	0	
13	0	0	0	0	0	507	508	508	32	0	
14	0	0	0	0	0	509	510	510	31	0	
15	0	0	0	0	0	513	509	511	31	0	
0	0	0	0	0	0	515	509	512	31	0	
1	0	0	0	0	0	519	510	513	32	0	
2	0	0	0	0	0	519	508	512	32	0	
3	0	0	0	0	0	516	507	511	32	0	
4	0	0	0	0	1	518	510	512	31	0	
5	0	0	0	0	0	518	510	511	31	0	
6	0	0	0	0	0	516	511	509	31	0	
7	0	0	0	0	0	514	511	510	32	0	
8	0	0	0	0	0	511	511	512	32	0	
9	0	0	0	0	0	507	511	512	32	0	
10	0	0	0	0	0	504	510	512	31	0	
11	0	0	0	0	0	505	511	512	32	0	
12	0	0	0	0	1	506	511	509	31	0	
13	0	0	0	0	0	508	510	507	31	0	
14	0	0	0	0	0	510	508	509	31	0	
15	0	0	0	0	0	515	508	509	31	0	
0	0	0	0	0	0	517	510	513	31	0	
1	0	0	0	0	0	520	512	512	31	0	
2	0	0	0	0	0	520	512	510	31	0	
3	0	0	0	0	0	521	510	512	31	0	
4	0	0	0	0	1	520	510	508	32	0	
5	0	0	0	0	0	522	510	510	32	0	
6	0	0	0	0	0	518	510	512	32	0	
7	0	0	0	0	0	518	508	511	32	0	
8	0	0	0	0	0	516	507	512	32	0	
9	0	0	0	0	0	514	508	513	32	0	
10	0	0	0	0	0	507	509	512	32	0	
11	0	0	0	0	0	504	510	512	31	0	
12	0	0	0	0	1	505	509	512	31	0	
13	0	0	0	0	0	503	510	508	32	0	
14	0	0	0	0	0	509	510	510	31	0	
15	0	0	0	0	0	507	509	508	31	0	
0	0	0	0	0	0	512	510	509	31	0	
1	0	0	0	0	0	513	509	511	32	0	
2	0	0	0	0	0	515	510	509	31	0	
3	0	0	0	0	0	520	512	511	32	0	
4	0	0	0	0	1	523	510	514	32	0	
5	0	0	0	0	0	520	508	512	31	0	
6	0	0	0	0	0	520	510	512	32	0	
7	0	0	0	0	0	515	509	511	32	0	
8	0	0	0	0	0	512	509	511	32	0	
9	0	0	0	0	0	513	511	511	32	0	
10	0	0	0	0	0	506	509	511	31	0	
11	0	0	0	0	0	505	511	510	31	0	
12	0	0	0	0	1	506	509	510	32	0	
13	0	0	0	0	0	505	507	511	31	0	
14	0	0	0	0	0	508	508	513	31	0	
15	0	0	0	0	0	510	510	511	32	0	
0	0	0	0	0	0	511	510	512	31	0	
1	0	0	0	0	0	509	508	509	31	0	
2	0	0	0	0	0	516	510	511	31	0	
3	0	0	0	0	0	518	509	510	32	0	
4	0	0	0	0	1	520	511	511	31	0	
5	0	0	0	0	0	519	510	511	32	0	
6	0	0	0	0	0	520	508	515	32	0	
7	0	0	0	0	0	518	511	512	32	0	
8	0	0	0	0	0	519	510	512	32	0	
9	0	0	0	0	0	517	510	511	32	0	
10	0	0	0	0	0	510	512	512	32	0	
11	0	0	0	0	0	506	511	511	31	0	
12	0	0	0	0	0	507	511	512	31	0	
13	0	0	0	0	0	507	510	511	32	0	
14	0	0	0	0	0	507	508	511	32	0	
15	0	0	0	0	0	508	508	509	31	0	
0	0	0	0	0	0	513	510	510	31	0	
1	0	0	0	0	0	515	510	509	31	0	
2	0	0	0	0	0	516	511	509	32	0	
3	0	0	0	0	0	520	508	511	31	0	
4	0	0	0	0	1	519	510	510	31	0	
5	0	0	0	0	0	523	509	512	31	0	
6	0	0	0	0	0	519	509	512	32	0	
7	0	0	0	0	0	517	511	514	31	0	
8	0	0	0	0	0	517	511	513	32	0	
9	0	0	0	0	0	517	509	510	32	0	
10	0	0	0	0	0	511	508	512	32	0	
11	0	0	0	0	0	508	509	511	31	0	
12	0	0	0	0	1	507	510	510	32	0	
13	0	0	0	0	0	505	511	508	31	0	
14	0	0	0	0	0	510	510	511	32	0	
15	0	0	0	0	0	507	510	509	32	0	
0	0	0	0	0	0	504	509	510	31	0	
1	0	0	0	0	0	505	510	508	31	0	
2	0	0	0	0	0	512	510	510	32	0	
3	0	0	0	0	0	513	510	511	32	0	
4	0	0	0	0	1	517	509	512	32	0	
5	0	0	0	0	0	519	510	510	32	0	
6	0	0	0	0	0	522	511	511	31	0	
7	0	0	0	0	0	523	510	512	31	0	
8	0	0	0	0	0	519	510	513	31	0	
9	0	0	0	0	0	518	510	512	32	0	
10	0	0	0	0	0	515	511	510	32	0	
11	0	0	0	0	0	513	508	513	32	0	
12	0	0	0	0	1	511	510	512	32	0	
13	0	0	0	0	0	506	510	510	32	0	
14	0	0	0	0	0	504	511	511	32	0	
15	0	0	0	0	0	503	510	509	31	0	
0	0	0	0	0	0	507	508	510	31	0	
1	0	0	0	0	0	512	510	509	31	0	
2	0	0	0	0	0	512	511	511	32	0	
3	0	0	0	0	0	516	509	511	32	0	
4	0	0	0	0	1	512	509	511	32	0	
5	0	0	0	0	0	521	511	513	32	0	
6	0	0	0	0	0	521	510	514	32	0	
7	0	0	0	0	0	523	508	515	32	0	
8	0	0	0	0	0	525	511	511	31	0	
9	0	0	0	0	0	518	508	511	31	0	
10	0	0	0	0	0	518	508	512	32	0	
11	0	0	0	0	0	515	510	511	31	0	
12	0	0	0	0	1	510	510	511	32	0	
13	0	0	0	0	0	505	508	511	32	0	
14	0	0	0	0	0	500	508	511	32	0	
15	0	0	0	0	0	502	509	511	32	0	
0	0	0	0	0	0	502	512	511	32	0	
1	0	0	0	0	0	505	509	510	31	0	
2	0	0	0	0	0	508	510	507	31	0	
3	0	0	0	0	0	510	508	509	31	0	
4	0	0	0	0	1	515	509	513	32	0	
5	0	0	0	0	0	519	507	510	31	0	
6	0	0	0	0	0	523	509	513	31	0	
7	0	0	0	0	0	519	511	514	32	0	
8	0	0	0	0	0	525	510	513	32	0	
9	0	0	0	0	0	521	509	509	31	0	
10	0	0	0	0	0	518	511	512	32	0	
11	0	0	0	0	0	514	509	511	32	0	
12	0	0	0	0	1	508	510	511	31	0	
13	0	0	0	0	0	509	510	511	31	0	
14	0	0	0	0	0	506	510	512	32	0	
15	0	0	0	0	0	504	508	511	32	0	
0	0	0	0	0	0	507	510	509	31	0	
1	0	0	0	0	0	508	508	508	32	0	
2	0	0	0	0	0	505	508	509	31	0	
3	0	0	0	0	0	511	507	511	31	0	
4	0	0	0	0	1	513	510	512	31	0	
5	0	0	0	0	0	515	511	510	31	0	
6	0	0	0	0	0	519	511	510	31	0	
7	0	0	0	0	0	517	511	510	32	0	
8	0	0	0	0	0	520	511	513	32	0	
9	0	0	0	0	0	522	510	513	32	0	
10	0	0	0	0	0	519	510	514	31	0	
11	0	0	0	0	0	515	508	513	32	0	
12	0	0	0	0	1	515	510	511	32	0	
13	0	0	0	0	0	515	512	509	31	0	
14	0	0	0	0	0	508	512	509	32	0	
15	0	0	0	0	0	506	507	511	31	0	
0	0	0	0	0	0	504	511	511	31	0	
1	0	0	0	0	0	504	509	510	31	0	
2	0	0	0	0	0	504	509	510	31	0	
3	0	0	0	0	0	507	510	509	32	0	
4	0	0	0	0	1	510	508	510	32	0	
5	0	0	0	0	0	514	510	512	32	0	
6	0	0	0	0	0	520	508	511	32	0	
7	0	0	0	0	0	523	510	508	31	0	
8	0	0	0	0	0	525	507	509	32	0	
9	0	0	0	0	0	524	510	512	31	0	
10	0	0	0	0	0	520	511	512	31	0	
11	0	0	0	0	0	516	510	512	32	0	
12	0	0	0	0	0	514	511	511	32	0	
13	0	0	0	0	0	512	510	511	32	0	
14	0	0	0	0	0	510	510	512	31	0	
15	0	0	0	0	0	506	510	512	32	0	
0	0	0	0	0	0	508	511	510	32	0	
1	0	0	0	0	0	501	509	509	31	0	
2	0	0	0	0	0	506	508	510	31	0	
3	0	0	0	0	0	504	509	511	32	0	
4	0	0	0	0	0	508	508	512	32	0	
5	0	0	0	0	0	511	509	511	32	0	
6	0	0	0	0	0	516	510	512	32	0	
7	0	0	0	0	0	518	508	511	32	0	
8	0	0	0	0	0	519	508	512	31	0	
9	0	0	0	0	0	523	511	512	32	0	
10	0	0	0	0	0	521	513	512	32	0	
11	0	0	0	0	0	519	512	511	32	0	
12	0	0	0	0	0	517	509	512	31	0	
13	0	0	0	0	0	520	509	514	31	0	
14	0	0	0	0	0	512	509	511	31	0	
15	0	0	0	0	0	510	510	510	31	0	
0	0	0	0	0	0	506	511	510	32	0	
1	0	0	0	0	0	506	511	509	32	0	
2	0	0	0	0	0	507	508	510	32	0	
3	0	0	0	0	0	504	507	512	32	0	
4	0	0	0	0	1	510	510	512	32	0	
5	0	0	0	0	0	512	509	510	31	0	
6	0	0	0	0	0	513	510	511	31	0	
7	0	0	0	0	0	516	511	512	31	0	
8	0	0	0	0	0	519	511	511	31	0	
9	0	0	0	0	0	521	510	511	31	0	
10	0	0	0	0	0	524	508	513	31	0	
11	0	0	0	0	0	524	510	511	31	0	
12	0	0	0	0	1	520	510	512	32	0	
13	0	0	0	0	0	518	508	513	31	0	
14	0	0	0	0	0	516	509	512	31	0	
15	0	0	0	0	0	511	510	512	32	0	
0	0	0	0	0	0	512	510	510	31	0	
1	0	0	0	0	0	507	509	510	32	0	
2	0	0	0	0	0	505	510	510	32	0	
3	0	0	0	0	0	507	508	511	32	0	
4	0	0	0	0	1	504	509	513	32	0	
5	0	0	0	0	0	506	511	510	32	0	
6	0	0	0	0	0	509	510	509	31	0	
7	0	0	0	0	0	513	510	511	32	0	
8	0	0	0	0	0	518	509	509	32	0	
9	0	0	0	0	0	520	511	512	31	0	
10	0	0	0	0	0	521	510	512	31	0	
11	0	0	0	0	0	521	510	513	32	0	
12	0	0	0	0	1	519	510	515	32	0	
13	0	0	0	0	0	517	509	512	31	0	
14	0	0	0	0	0	513	510	509	31	0	
15	0	0	0	0	0	511	509	509	31	0	
0	0	0	0	0	0	511	508	508	32	0	
1	0	0	0	0	0	510	508	512	32	0	
2	0	0	0	0	0	510	510	512	32	0	
3	0	0	0	0	0	504	510	510	31	0	
4	0	0	0	0	1	502	511	512	32	0	
5	0	0	0	0	0	505	510	510	31	0	
6	0	0	0	0	0	504	509	511	32	0	
7	0	0	0	0	0	512	510	510	31	0	
8	0	0	0	0	0	512	510	509	31	0	
9	0	0	0	0	0	516	511	510	32	0	
10	0	0	0	0	0	519	509	510	31	0	
11	0	0	0	0	0	522	508	512	31	0	
12	0	0	0	0	1	523	509	512	31	0	
13	0	0	0	0	0	522	509	513	32	0	
14	0	0	0	0	0	521	511	513	32	0	
15	0	0	0	0	0	515	511	511	31	0	
0	0	0	0	0	0	512	510	511	31	0	
1	0	0	0	0	0	509	509	513	32	0	
2	0	0	0	0	0	502	512	511	32	0	
3	0	0	0	0	0	504	510	509	32	0	
4	0	0	0	0	1	505	510	510	32	0	
5	0	0	0	0	0	507	508	508	32	0	
6	0	0	0	0	0	503	508	509	31	0	
7	0	0	0	0	0	508	510	507	31	0	
8	0	0	0	0	0	508	512	510	31	0	
9	0	0	0	0	0	515	510	510	31	0	
10	0	0	0	0	0	523	509	510	31	0	
11	0	0	0	0	0	521	508	511	32	0	
12	0	0	0	0	1	523	507	514	32	0	
13	0	0	0	0	0	519	508	513	32	0	
14	0	0	0	0	0	519	511	512	32	0	
15	0	0	0	0	0	518	510	512	32	0	
0	0	0	0	0	0	517	509	514	32	0	
1	0	0	0	0	0	514	510	512	32	0	
2	0	0	0	0	0	512	509	511	31	0	
3	0	0	0	0	0	511	510	510	32	0	
4	0	0	0	0	1	505	510	509	31	0	
5	0	0	0	0	0	505	510	508	32	0	
6	0	0	0	0	0	506	512	508	31	0	
7	0	0	0	0	0	505	510	510	32	0	
8	0	0	0	0	0	508	509	510	31	0	
9	0	0	0	0	0	513	509	510	31	0	
10	0	0	0	0	0	515	510	512	31	0	
11	0	0	0	0	0	518	509	511	32	0	
12	0	0	0	0	1	519	507	512	32	0	
13	0	0	0	0	0	520	510	514	32	0	
14	0	0	0	0	0	517	509	512	32	0	
15	0	0	0	0	0	519	510	513	32	0	
0	0	0	0	0	0	515	510	511	31	0	
1	0	0	0	0	0	515	510	509	32	0	
2	0	0	0	0	0	512	512	513	32	0	
3	0	0	0	0	0	504	511	512	31	0	
4	0	0	0	0	1	505	509	510	31	0	
5	0	0	0	0	0	508	510	511	32	0	
6	0	0	0	0	0	508	509	512	32	0	
7	0	0	0	0	0	508	512	510	31	0	
8	0	0	0	0	0	508	512	512	31	0	
9	0	0	0	0	0	509	510	510	31	0	
10	0	0	0	0	0	513	510	512	31	0	
11	0	0	0	0	0	516	508	510	31	0	
12	0	0	0	0	1	522	508	511	31	0	
13	0	0	0	0	0	525	509	513	32	0	
14	0	0	0	0	0	521	508	512	32	0	
15	0	0	0	0	0	523	508	511	32	0	
0	0	0	0	0	0	518	508	511	32	0	
1	0	0	0	0	0	512	509	513	31	0	
2	0	0	0	0	0	512	507	511	31	0	
3	0	0	0	0	0	507	508	510	31	0	
4	0	0	0	0	0	505	512	512	32	0	
5	0	0	0	0	0	505	511	511	31	0	
6	0	0	0	0	0	503	511	512	32	0	
7	0	0	0	0	0	505	512	510	32	0	
8	0	0	0	0	0	508	510	511	31	0	
9	0	0	0	0	0	511	509	511	32	0	
10	0	0	0	0	0	514	508	512	32	0	
11	0	0	0	0	0	518	510	511	32	0	
12	0	0	0	0	1	518	509	512	32	0	
13	0	0	0	0	0	520	510	509	32	0	
14	0	0	0	0	0	523	511	510	32	0	
15	0	0	0	0	0	520	511	513	31	0	
0	0	0	0	0	0	521	511	510	32	0	
1	0	0	0	0	0	522	510	512	32	0	
2	0	0	0	0	0	519	508	512	32	0	
3	0	0	0	0	0	514	509	511	31	0	
4	0	0	0	0	1	512	510	511	31	0	
5	0	0	0	0	0	506	511	512	31	0	
6	0	0	0	0	0	502	508	508	31	0	
7	0	0	0	0	0	505	511	509	32	0	
8	0	0	0	0	0	507	511	510	32	0	
9	0	0	0	0	0	505	510	510	32	0	
10	0	0	0	0	0	509	510	510	31	0	
11	0	0	0	0	0	512	510	510	31	0	
12	0	0	0	0	1	513	510	511	31	0	
13	0	0	0	0	0	519	508	511	32	0	
14	0	0	0	0	0	523	508	511	31	0	
15	0	0	0	0	0	520	508	510	32	0	
0	0	0	0	0	0	522	509	513	32	0	
1	0	0	0	0	0	519	508	514	31	0	
2	0	0	0	0	0	518	508	513	32	0	
3	0	0	0	0	0	512	508	515	32	0	
4	0	0	0	0	1	508	508	511	32	0	
5	0	0	0	0	0	508	509	512	32	0	
6	0	0	0	0	0	497	509	510	31	0	
7	0	0	0	0	0	499	510	508	31	0	
8	0	0	0	0	0	499	512	509	31	0	
9	0	0	0	0	0	502	513	509	31	0	
10	0	0	0	0	0	505	511	510	31	0	
11	0	0	0	0	0	506	511	512	31	0	
12	0	0	0	0	1	511	512	515	32	0	
13	0	0	0	0	0	516	510	512	31	0	
14	0	0	0	0	0	520	509	511	32	0	
15	0	0	0	0	0	521	510	512	31	0	
0	0	0	0	0	0	524	509	511	32	0	
1	0	0	0	0	0	517	509	512	32	0	
2	0	0	0	0	0	518	510	510	32	0	
3	0	0	0	0	0	518	508	511	32	0	
4	0	0	0	0	1	515	510	511	31	0	
5	0	0	0	0	0	513	508	511	31	0	
6	0	0	0	0	0	505	510	513	32	0	
7	0	0	0	0	0	505	509	511	32	0	
8	0	0	0	0	0	508	510	511	31	0	
9	0	0	0	0	0	506	509	510	31	0	
10	0	0	0	0	0	510	510	511	32	0	
11	0	0	0	0	0	512	510	509	31	0	
12	0	0	0	0	1	515	510	511	32	0	
13	0	0	0	0	0	518	510	510	32	0	
14	0	0	0	0	0	520	510	514	32	0	
15	0	0	0	0	0	515	512	513	31	0	
0	0	0	0	0	0	519	511	513	32	0	
1	0	0	0	0	0	521	510	512	32	0	
2	0	0	0	0	0	522	509	511	32	0	
3	0	0	0	0	0	517	509	512	32	0	
4	0	0	0	0	1	515	511	511	32	0	
5	0	0	0	0	0	511	509	511	31	0	
6	0	0	0	0	0	509	510	511	31	0	
7	0	0	0	0	0	511	510	509	31	0	
8	0	0	0	0	0	505	509	512	31	0	
9	0	0	0	0	0	503	508	514	31	0	
10	0	0	0	0	0	502	510	509	31	0	
11	0	0	0	0	0	505	511	508	31	0	
12	0	0	0	0	1	511	510	510	31	0	
13	0	0	0	0	0	513	512	513	31	0	
14	0	0	0	0	0	516	510	513	31	0	
15	0	0	0	0	0	521	510	513	32	0	
0	0	0	0	0	0	523	508	513	32	0	
1	0	0	0	0	0	523	510	513	32	0	
2	0	0	0	0	0	526	509	513	32	0	
3	0	0	0	0	0	521	510	512	32	0	
4	0	0	0	0	1	520	508	513	32	0	
5	0	0	0	0	0	515	511	512	32	0	
6	0	0	0	0	0	511	509	515	32	0	
7	0	0	0	0	0	510	510	512	32	0	
8	0	0	0	0	0	504	512	509	32	0	
9	0	0	0	0	0	509	511	513	32	0	
10	0	0	0	0	0	508	508	512	32	0	
11	0	0	0	0	0	511	506	509	31	0	
12	0	0	0	0	1	511	508	508	31	0	
13	0	0	0	0	0	512	508	506	31	0	
14	0	0	0	0	0	518	507	509	31	0	
15	0	0	0	0	0	521	507	508	31	0	
0	0	0	0	0	0	523	508	509	31	0	
1	0	0	0	0	0	521	510	507	31	0	
2	0	0	0	0	0	521	510	509	31	0	
3	0	0	0	0	0	520	510	508	31	0	
4	0	0	0	0	1	516	507	507	31	0	
5	0	0	0	0	0	516	508	510	31	0	
6	0	0	0	0	0	512	510	510	31	0	
7	0	0	0	0	0	505	508	509	31	0	
8	0	0	0	0	0	508	508	510	31	0	
9	0	0	0	0	0	505	510	509	31	0	
10	0	0	0	0	0	502	509	508	31	0	
11	0	0	0	0	0	503	510	510	32	0	
12	0	0	0	0	0	502	510	511	31	0	
13	0	0	0	0	0	506	512	510	31	0	
14	0	0	0	0	0	513	510	513	32	0	
15	0	0	0	0	0	518	511	514	32	0	
0	0	0	0	0	0	521	513	513	32	0	
1	0	0	0	0	0	521	510	515	32	0	
2	0	0	0	0	0	522	509	515	32	0	
3	0	0	0	0	0	524	511	515	32	0	
4	0	0	0	0	0	521	510	515	32	0	
5	0	0	0	0	0	518	508	512	32	0	
6	0	0	0	0	0	518	508	515	32	0	
7	0	0	0	0	0	514	511	511	32	0	
8	0	0	0	0	0	507	509	511	32	0	
9	0	0	0	0	0	506	509	510	32	0	
10	0	0	0	0	0	506	510	512	31	0	
11	0	0	0	0	0	501	510	510	31	0	
12	0	0	0	0	1	505	509	510	31	0	
13	0	0	0	0	0	506	512	509	31	0	
14	0	0	0	0	0	513	510	508	32	0	
15	0	0	0	0	0	513	510	511	31	0	
0	0	0	0	0	0	514	508	511	32	0	
1	0	0	0	0	0	517	508	513	32	0	
2	0	0	0	0	0	519	509	513	32	0	
3	0	0	0	0	0	520	512	512	32	0	
4	0	0	0	0	1	519	510	512	31	0	
5	0	0	0	0	0	518	511	511	31	0	
6	0	0	0	0	0	514	508	511	31	0	
7	0	0	0	0	0	512	508	512	32	0	
8	0	0	0	0	0	513	511	512	31	0	
9	0	0	0	0	0	505	509	511	32	0	
10	0	0	0	0	0	506	508	513	32	0	
11	0	0	0	0	0	507	510	512	32	0	
12	0	0	0	0	1	502	510	510	32	0	
13	0	0	0	0	0	504	508	510	31	0	
14	0	0	0	0	0	507	508	510	32	0	
15	0	0	0	0	0	508	510	510	32	0	
0	0	0	0	0	0	510	511	509	31	0	
1	0	0	0	0	0	517	511	512	31	0	
2	0	0	0	0	0	522	511	513	32	0	
3	0	0	0	0	0	526	508	511	32	0	
4	0	0	0	0	1	523	509	509	31	0	
5	0	0	0	0	0	520	509	511	32	0	
6	0	0	0	0	0	521	510	511	32	0	
7	0	0	0	0	0	519	509	511	32	0	
8	0	0	0	0	0	515	507	510	32	0	
9	0	0	0	0	0	512	510	512	31	0	
10	0	0	0	0	0	506	511	509	31	0	
11	0	0	0	0	0	504	509	511	32	0	
12	0	0	0	0	1	504	509	512	32	0	
13	0	0	0	0	0	507	508	509	32	0	
14	0	0	0	0	0	509	510	508	32	0	
15	0	0	0	0	0	512	510	511	31	0	
0	0	0	0	0	0	515	509	509	31	0	
1	0	0	0	0	0	519	509	512	32	0	
2	0	0	0	0	0	519	508	513	32	0	
3	0	0	0	0	0	520	510	512	31	0	
4	0	0	0	0	1	521	511	512	32	0	
5	0	0	0	0	0	525	511	512	31	0	
6	0	0	0	0	0	520	510	509	31	0	
7	0	0	0	0	0	516	510	511	32	0	
8	0	0	0	0	0	514	511	512	32	0	
9	0	0	0	0	0	507	510	510	32	0	
10	0	0	0	0	0	507	510	512	32	0	
11	0	0	0	0	0	505	510	511	32	0	
12	0	0	0	0	1	503	508	509	32	0	
13	0	0	0	0	0	505	510	508	32	0	
14	0	0	0	0	0	505	509	510	31	0	
15	0	0	0	0	0	508	510	510	32	0	
0	0	0	0	0	0	509	510	511	31	0	
1	0	0	0	0	0	509	509	512	32	0	
2	0	0	0	0	0	511	507	510	32	0	
3	0	0	0	0	0	516	509	509	31	0	
4	0	0	0	0	1	523	511	511	32	0	
5	0	0	0	0	0	523	509	515	32	0	
6	0	0	0	0	0	518	510	513	32	0	
7	0	0	0	0	0	516	511	511	31	0	
8	0	0	0	0	0	513	509	510	31	0	
9	0	0	0	0	0	518	510	508	32	0	
10	0	0	0	0	0	515	509	513	32	0	
11	0	0	0	0	0	507	511	512	32	0	
12	0	0	0	0	1	511	509	512	32	0	
13	0	0	0	0	0	505	508	509	32	0	
14	0	0	0	0	0	504	509	511	31	0	
15	0	0	0	0	0	507	511	511	31	0	
0	0	0	0	0	0	507	512	510	31	0	
1	0	0	0	0	0	510	513	508	32	0	
2	0	0	0	0	0	511	510	510	31	0	
3	0	0	0	0	0	521	510	509	32	0	
4	0	0	0	0	1	524	510	513	32	0	
5	0	0	0	0	0	525	509	511	32	0	
6	0	0	0	0	0	524	511	511	32	0	
7	0	0	0	0	0	521	510	513	31	0	
8	0	0	0	0	0	519	510	513	31	0	
9	0	0	0	0	0	514	510	512	31	0	
10	0	0	0	0	0	511	511	512	32	0	
11	0	0	0	0	0	508	510	509	31	0	
12	0	0	0	0	1	504	510	509	32	0	
13	0	0	0	0	0	504	509	512	31	0	
14	0	0	0	0	0	504	509	511	32	0	
15	0	0	0	0	0	506	507	513	32	0	
0	0	0	0	0	0	504	510	510	32	0	
1	0	0	0	0	0	508	508	508	32	0	
2	0	0	0	0	0	514	509	511	32	0	
3	0	0	0	0	0	521	509	511	32	0	
4	0	0	0	0	1	524	510	510	31	0	
5	0	0	0	0	0	522	509	510	31	0	
6	0	0	0	0	0	522	508	513	31	0	
7	0	0	0	0	0	520	509	513	31	0	
8	0	0	0	0	0	518	511	511	31	0	
9	0	0	0	0	0	519	511	510	31	0	
10	0	0	0	0	0	515	512	511	32	0	
11	0	0	0	0	0	506	509	511	31	0	
12	0	0	0	0	0	504	509	510	32	0	
13	0	0	0	0	0	505	511	513	32	0	
14	0	0	0	0	0	505	510	513	32	0	
15	0	0	0	0	0	504	510	510	32	0	
0	0	0	0	0	0	504	509	510	31	0	
1	0	0	0	0	0	506	509	511	32	0	
2	0	0	0	0	0	512	509	510	32	0	
3	0	0	0	0	0	512	508	510	31	0	
4	0	0	0	0	1	515	508	509	31	0	
5	0	0	0	0	0	519	509	509	32	0	
6	0	0	0	0	0	523	510	512	32	0	
7	0	0	0	0	0	524	510	513	32	0	
8	0	0	0	0	0	523	510	511	31	0	
9	0	0	0	0	0	517	509	512	32	0	
10	0	0	0	0	0	515	513	511	32	0	
11	0	0	0	0	0	513	511	511	32	0	
12	0	0	0	0	1	513	508	510	32	0	
13	0	0	0	0	0	512	508	511	32	0	
14	0	0	0	0	0	506	508	511	32	0	
15	0	0	0	0	0	506	509	513	32	0	
0	0	0	0	0	0	507	508	511	32	0	
1	0	0	0	0	0	506	510	510	31	0	
2	0	0	0	0	0	508	510	508	31	0	
3	0	0	0	0	0	509	511	508	31	0	
4	0	0	0	0	1	513	512	510	31	0	
5	0	0	0	0	0	519	508	513	31	0	
6	0	0	0	0	0	518	508	511	31	0	
7	0	0	0	0	0	518	510	512	32	0	
8	0	0	0	0	0	523	511	510	32	0	
9	0	0	0	0	0	519	509	515	32	0	
10	0	0	0	0	0	518	508	512	32	0	
11	0	0	0	0	0	519	508	513	32	0	
12	0	0	0	0	1	515	509	513	32	0	
13	0	0	0	0	0	513	511	510	32	0	
14	0	0	0	0	0	508	511	511	31	0	
15	0	0	0	0	0	504	510	510	31	0	
0	0	0	0	0	0	505	511	509	31	0	
1	0	0	0	0	0	501	511	512	31	0	
2	0	0	0	0	0	505	509	510	31	0	
3	0	0	0	0	0	504	510	510	32	0	
4	0	0	0	0	1	510	508	509	32	0	
5	0	0	0	0	0	519	509	509	32	0	
6	0	0	0	0	0	519	509	511	31	0	
7	0	0	0	0	0	518	508	514	31	0	
8	0	0	0	0	0	521	510	515	31	0	
9	0	0	0	0	0	521	513	512	32	0	
10	0	0	0	0	0	519	510	512	32	0	
11	0	0	0	0	0	517	507	511	32	0	
12	0	0	0	0	1	514	507	513	32	0	
13	0	0	0	0	0	512	510	514	32	0	
14	0	0	0	0	0	505	510	511	32	0	
15	0	0	0	0	0	507	510	510	32	0	
0	0	0	0	0	0	507	511	509	32	0	
1	0	0	0	0	0	506	508	510	32	0	
2	0	0	0	0	0	508	508	510	32	0	
3	0	0	0	0	0	508	508	510	32	0	
4	0	0	0	0	1	509	510	511	31	0	
5	0	0	0	0	0	510	508	511	32	0	
6	0	0	0	0	0	516	509	512	31	0	
7	0	0	0	0	0	523	511	510	31	0	
8	0	0	0	0	0	521	508	511	31	0	
9	0	0	0	0	0	525	511	511	32	0	
10	0	0	0	0	0	525	511	514	32	0	
11	0	0	0	0	0	521	511	509	31	0	
12	0	0	0	0	1	516	508	512	31	0	
13	0	0	0	0	0	514	510	513	32	0	
14	0	0	0	0	0	515	511	511	32	0	
15	0	0	0	0	0	509	511	511	31	0	
0	0	0	0	0	0	505	509	511	32	0	
1	0	0	0	0	0	504	507	509	32	0	
2	0	0	0	0	0	505	508	509	32	0	
3	0	0	0	0	0	508	510	510	32	0	
4	0	0	0	0	1	506	510	508	32	0	
5	0	0	0	0	0	506	510	510	31	0	
6	0	0	0	0	0	514	510	512	32	0	
7	0	0	0	0	0	518	511	510	32	0	
8	0	0	0	0	0	523	508	514	32	0	
9	0	0	0	0	0	523	509	514	32	0	
10	0	0	0	0	0	518	508	512	32	0	
11	0	0	0	0	0	516	510	512	31	0	
12	0	0	0	0	1	515	510	511	31	0	
13	0	0	0	0	0	518	512	511	31	0	
14	0	0	0	0	0	514	510	510	32	0	
15	0	0	0	0	0	508	510	510	31	0	
0	0	0	0	0	0	508	511	510	32	0	
1	0	0	0	0	0	503	509	509	32	0	
2	0	0	0	0	0	505	508	509	32	0	
3	0	0	0	0	0	505	511	508	32	0	
4	0	0	0	0	1	508	507	510	31	0	
5	0	0	0	0	0	512	510	510	31	0	
6	0	0	0	0	0	513	509	510	32	0	
7	0	0	0	0	0	514	510	512	32	0	
8	0	0	0	0	0	517	509	512	31	0	
9	0	0	0	0	0	518	512	510	31	0	
10	0	0	0	0	0	520	508	513	32	0	
11	0	0	0	0	0	523	509	511	32	0	
12	0	0	0	0	1	520	510	512	32	0	
13	0	0	0	0	0	520	510	514	32	0	
14	0	0	0	0	0	516	508	513	32	0	
15	0	0	0	0	0	515	509	514	31	0	
0	0	0	0	0	0	508	509	512	32	0	
1	0	0	0	0	0	507	512	512	32	0	
2	0	0	0	0	0	504	509	511	32	0	
3	0	0	0	0	0	503	507	511	31	0	
4	0	0	0	0	0	506	508	510	32	0	
5	0	0	0	0	0	505	511	508	31	0	
6	0	0	0	0	0	509	510	509	31	0	
7	0	0	0	0	0	512	510	508	32	0	
8	0	0	0	0	0	518	509	512	32	0	
9	0	0	0	0	0	520	508	512	32	0	
10	0	0	0	0	0	521	511	513	31	0	
11	0	0	0	0	0	524	511	511	31	0	
12	0	0	0	0	0	523	512	512	31	0	
13	0	0	0	0	0	518	513	511	31	0	
14	0	0	0	0	0	516	511	512	31	0	
15	0	0	0	0	0	511	511	511	31	0	
0	0	0	0	0	0	510	510	511	32	0	
1	0	0	0	0	0	510	509	511	32	0	
2	0	0	0	0	0	503	508	511	32	0	
3	0	0	0	0	0	502	507	513	32	0	
4	0	0	0	0	0	502	510	511	32	0	
5	0	0	0	0	0	507	508	510	31	0	
6	0	0	0	0	0	510	507	509	32	0	
7	0	0	0	0	0	517	511	510	32	0	
8	0	0	0	0	0	517	511	511	32	0	
9	0	0	0	0	0	517	511	511	31	0	
10	0	0	0	0	0	520	509	513	31	0	
11	0	0	0	0	0	519	510	512	32	0	
12	0	0	0	0	1	518	512	513	32	0	
13	0	0	0	0	0	513	510	514	32	0	
14	0	0	0	0	0	516	508	512	31	0	
15	0	0	0	0	0	516	508	513	31	0	
0	0	0	0	0	0	511	510	512	32	0	
1	0	0	0	0	0	514	510	511	32	0	
2	0	0	0	0	0	510	509	510	31	0	
3	0	0	0	0	0	504	507	508	31	0	
4	0	0	0	0	1	504	510	511	32	0	
5	0	0	0	0	0	503	510	511	31	0	
6	0	0	0	0	0	505	509	509	31	0	
7	0	0	0	0	0	510	510	511	31	0	
8	0	0	0	0	0	511	510	510	31	0	
9	0	0	0	0	0	516	511	511	32	0	
10	0	0	0	0	0	520	511	511	32	0	
11	0	0	0	0	0	524	511	512	32	0	
12	0	0	0	0	1	524	509	513	32	0	
13	0	0	0	0	0	519	508	510	32	0	
14	0	0	0	0	0	517	507	512	31	0	
15	0	0	0	0	0	514	508	510	31	0	
0	0	0	0	0	0	515	510	511	32	0	
1	0	0	0	0	0	510	510	512	32	0	
2	0	0	0	0	0	508	511	512	32	0	
3	0	0	0	0	0	508	511	510	31	0	
4	0	0	0	0	1	505	511	508	31	0	
5	0	0	0	0	0	507	509	510	32	0	
6	0	0	0	0	0	504	510	510	31	0	
7	0	0	0	0	0	507	509	510	32	0	
8	0	0	0	0	0	512	510	509	31	0	
9	0	0	0	0	0	516	510	511	32	0	
10	0	0	0	0	0	519	510	511	32	0	
11	0	0	0	0	0	517	511	511	31	0	
12	0	0	0	0	1	524	508	512	31	0	
13	0	0	0	0	0	525	510	511	32	0	
14	0	0	0	0	0	523	508	510	32	0	
15	0	0	0	0	0	518	511	513	31	0	
0	0	0	0	0	0	514	510	513	31	0	
1	0	0	0	0	0	513	510	512	32	0	
2	0	0	0	0	0	509	510	513	32	0	
3	0	0	0	0	0	506	510	512	32	0	
4	0	0	0	0	1	503	511	511	32	0	
5	0	0	0	0	0	504	511	510	31	0	
6	0	0	0	0	0	503	509	511	32	0	
7	0	0	0	0	0	509	508	514	31	0	
8	0	0	0	0	0	510	511	512	32	0	
9	0	0	0	0	0	509	509	509	31	0	
10	0	0	0	0	0	513	508	510	31	0	
11	0	0	0	0	0	519	510	511	32	0	
12	0	0	0	0	1	520	508	511	32	0	
13	0	0	0	0	0	522	510	512	32	0	
14	0	0	0	0	0	523	508	508	31	0	
15	0	0	0	0	0	524	510	514	31	0	
0	0	0	0	0	0	519	511	510	31	0	
1	0	0	0	0	0	514	509	512	31	0	
2	0	0	0	0	0	515	510	513	32	0	
3	0	0	0	0	0	508	509	511	32	0	
4	0	0	0	0	1	504	511	512	32	0	
5	0	0	0	0	0	504	511	511	32	0	
6	0	0	0	0	0	504	511	510	32	0	
7	0	0	0	0	0	507	508	509	31	0	
8	0	0	0	0	0	506	509	510	31	0	
9	0	0	0	0	0	509	510	511	32	0	
10	0	0	0	0	0	511	508	511	31	0	
11	0	0	0	0	0	517	509	509	32	0	
12	0	0	0	0	1	519	508	511	31	0	
13	0	0	0	0	0	520	509	511	32	0	
14	0	0	0	0	0	522	510	512	31	0	
15	0	0	0	0	0	519	512	512	31	0	
0	0	0	0	0	0	518	511	512	32	0	
1	0	0	0	0	0	517	510	513	31	0	
2	0	0	0	0	0	515	508	511	32	0	
3	0	0	0	0	0	512	510	512	32	0	
4	0	0	0	0	1	509	509	509	32	0	
5	0	0	0	0	0	507	509	510	32	0	
6	0	0	0	0	0	504	511	508	32	0	
7	0	0	0	0	0	504	511	509	32	0	
8	0	0	0	0	0	506	511	512	32	0	
9	0	0	0	0	0	508	509	512	32	0	
10	0	0	0	0	0	508	507	513	32	0	
11	0	0	0	0	0	515	508	515	31	0	
12	0	0	0	0	1	516	508	515	32	0	
13	0	0	0	0	0	519	510	513	32	0	
14	0	0	0	0	0	522	511	512	31	0	
15	0	0	0	0	0	521	513	513	32	0	
0	0	0	0	0	0	519	510	511	32	0	
1	0	0	0	0	0	520	510	513	31	0	
2	0	0	0	0	0	516	509	514	31	0	
3	0	0	0	0	0	512	508	512	32	0	
4	0	0	0	0	1	509	508	511	31	0	
5	0	0	0	0	0	504	510	510	31	0	
6	0	0	0	0	0	503	510	508	31	0	
7	0	0	0	0	0	504	510	508	31	0	
8	0	0	0	0	0	505	510	508	32	0	
9	0	0	0	0	0	505	510	510	31	0	
10	0	0	0	0	0	504	510	510	32	0	
11	0	0	0	0	0	507	509	510	32	0	
12	0	0	0	0	0	517	510	510	32	0	
13	0	0	0	0	0	520	510	511	31	0	
14	0	0	0	0	0	523	511	512	31	0	
15	0	0	0	0	0	523	507	512	32	0	
0	0	0	0	0	0	523	507	513	32	0	
1	0	0	0	0	0	516	508	512	32	0	
2	0	0	0	0	0	519	508	511	32	0	
3	0	0	0	0	0	518	510	511	32	0	
4	0	0	0	0	1	516	509	511	32	0	
5	0	0	0	0	0	514	509	511	32	0	
6	0	0	0	0	0	511	511	510	32	0	
7	0	0	0	0	0	507	508	509	32	0	
8	0	0	0	0	0	504	510	509	31	0	
9	0	0	0	0	0	508	513	509	32	0	
10	0	0	0	0	0	509	511	512	31	0	
11	0	0	0	0	0	511	511	511	32	0	
12	0	0	0	0	1	515	509	510	31	0	
13	0	0	0	0	0	521	511	510	32	0	
14	0	0	0	0	0	519	511	510	32	0	
15	0	0	0	0	0	521	508	511	32	0	
0	0	0	0	0	0	522	509	512	32	0	
1	0	0	0	0	0	519	510	508	32	0	
2	0	0	0	0	0	519	510	512	31	0	
3	0	0	0	0	0	513	512	513	32	0	
4	0	0	0	0	1	518	510	512	31	0	
5	0	0	0	0	0	514	512	510	31	0	
6	0	0	0	0	0	512	511	509	32	0	
7	0	0	0	0	0	508	509	511	32	0	
8	0	0	0	0	0	507	511	509	31	0	
9	0	0	0	0	0	505	510	509	31	0	
10	0	0	0	0	0	505	509	508	32	0	
11	0	0	0	0	0	508	510	511	32	0	
12	0	0	0	0	1	512	508	511	32	0	
13	0	0	0	0	0	512	508	513	32	0	
14	0	0	0	0	0	514	508	512	31	0	
15	0	0	0	0	0	519	509	511	31	0	
0	0	0	0	0	0	519	509	511	31	0	
1	0	0	0	0	0	520	510	511	32	0	
2	0	0	0	0	0	520	508	511	31	0	
3	0	0	0	0	0	521	508	513	31	0	
4	0	0	0	0	1	518	509	511	31	0	
5	0	0	0	0	0	515	508	512	32	0	
6	0	0	0	0	0	512	512	511	31	0	
7	0	0	0	0	0	508	510	512	31	0	
8	0	0	0	0	0	507	508	512	31	0	
9	0	0	0	0	0	503	509	510	32	0	
10	0	0	0	0	0	506	508	511	31	0	
11	0	0	0	0	0	505	509	511	32	0	
12	0	0	0	0	1	511	510	510	32	0	
13	0	0	0	0	0	513	511	512	32	0	
14	0	0	0	0	0	515	510	515	32	0	
15	0	0	0	0	0	516	510	513	31	0	
0	0	0	0	0	0	520	508	513	32	0	
1	0	0	0	0	0	522	509	510	31	0	
2	0	0	0	0	0	518	510	511	32	0	
3	0	0	0	0	0	515	509	510	31	0	
4	0	0	0	0	1	512	510	510	31	0	
5	0	0	0	0	0	514	509	508	32	0	
6	0	0	0	0	0	511	510	509	31	0	
7	0	0	0	0	0	505	510	510	31	0	
8	0	0	0	0	0	505	511	511	32	0	
9	0	0	0	0	0	505	509	510	31	0	
10	0	0	0	0	0	508	511	510	32	0	
11	0	0	0	0	0	507	509	512	32	0	
12	0	0	0	0	1	508	508	510	32	0	
13	0	0	0	0	0	512	511	512	31	0	
14	0	0	0	0	0	515	512	512	32	0	
15	0	0	0	0	0	520	511	512	32	0	
0	0	0	0	0	0	520	509	508	31	0	
1	0	0	0	0	0	524	511	509	32	0	
2	0	0	0	0	0	522	509	510	32	0	
3	0	0	0	0	0	518	509	512	31	0	
4	0	0	0	0	1	519	508	513	32	0	
5	0	0	0	0	0	515	508	511	32	0	
6	0	0	0	0	0	516	510	512	31	0	
7	0	0	0	0	0	514	510	512	32	0	
8	0	0	0	0	0	510	510	508	31	0	
9	0	0	0	0	0	503	509	509	31	0	
10	0	0	0	0	0	503	508	511	32	0	
11	0	0	0	0	0	502	510	512	31	0	
12	0	0	0	0	1	509	511	510	32	0	
13	0	0	0	0	0	508	510	512	32	0	
14	0	0	0	0	0	510	510	512	32	0	
15	0	0	0	0	0	512	511	512	32	0	
0	0	0	0	0	0	518	511	512	32	0	
1	0	0	0	0	0	523	510	512	32	0	
2	0	0	0	0	0	521	509	510	32	0	
3	0	0	0	0	0	523	510	512	32	0	
4	0	0	0	0	1	520	509	511	32	0	
5	0	0	0	0	0	517	509	510	32	0	
6	0	0	0	0	0	514	508	510	31	0	
7	0	0	0	0	0	512	509	511	31	0	
8	0	0	0	0	0	509	513	508	31	0	
9	0	0	0	0	0	508	511	513	32	0	
10	0	0	0	0	0	504	509	509	32	0	
11	0	0	0	0	0	499	507	510	32	0	
12	0	0	0	0	0	498	509	511	32	0	
13	0	0	0	0	0	493	510	512	31	0	
14	0	0	0	0	0	486	512	512	32	0	
15	0	0	0	0	0	483	512	511	31	0	
0	0	0	0	0	0	485	509	511	31	0	
1	0	0	0	0	0	493	510	510	32	0	
2	0	0	0	0	0	499	508	511	32	0	
3	0	0	0	0	0	502	509	511	32	0	
4	0	0	0	0	0	505	509	511	32	0	
5	0	0	0	0	0	508	510	511	32	0	
6	0	0	0	0	0	508	509	512	31	0	
7	0	0	0	0	0	509	510	512	32	0	
8	0	0	0	0	0	513	509	513	32	0	
9	0	0	0	0	0	510	509	511	31	0	
10	0	0	0	0	0	509	511	511	32	0	
11	0	0	0	0	0	512	509	510	32	0	
12	0	0	0	0	0	512	511	511	32	0	
13	0	0	0	0	0	515	510	511	31	0	
14	0	0	0	0	0	514	512	511	32	0	
15	0	0	0	0	0	520	511	511	31	0	
0	0	0	0	0	0	525	509	511	31	0	
1	0	0	0	0	0	525	510	512	31	0	
2	0	0	0	0	0	529	509	512	31	0	
3	0	0	0	0	0	529	508	510	32	0	
4	0	0	0	0	1	527	509	512	32	0	
5	0	0	0	0	0	525	508	514	32	0	
6	0	0	0	0	0	524	509	514	32	0	
7	0	0	0	0	0	519	508	510	31	0	
8	0	0	0	0	0	521	509	509	32	0	
9	0	0	0	0	0	518	512	509	32	0	
10	0	0	0	0	0	513	509	510	32	0	
11	0	0	0	0	0	508	510	511	32	0	
12	0	0	0	0	1	504	507	511	32	0	
13	0	0	0	0	0	505	510	511	32	0	
14	0	0	0	0	0	510	509	510	32	0	
15	0	0	0	0	0	511	511	510	32	0	
0	0	0	0	0	0	516	512	510	31	0	
1	0	0	0	0	0	519	511	510	31	0	
2	0	0	0	0	0	525	508	512	31	0	
3	0	0	0	0	0	523	508	512	31	0	
4	0	0	0	0	1	526	509	513	32	0	
5	0	0	0	0	0	525	507	514	32	0	
6	0	0	0	0	0	526	509	510	32	0	
7	0	0	0	0	0	519	511	509	32	0	
8	0	0	0	0	0	519	510	514	31	0	
9	0	0	0	0	0	519	508	511	31	0	
10	0	0	0	0	0	514	511	510	31	0	
11	0	0	0	0	0	510	509	510	31	0	
12	0	0	0	0	1	512	511	511	31	0	
13	0	0	0	0	0	508	509	510	32	0	
14	0	0	0	0	0	507	507	511	32	0	
15	0	0	0	0	0	505	508	512	32	0	
0	0	0	0	0	0	511	509	511	32	0	
1	0	0	0	0	0	514	510	510	32	0	
2	0	0	0	0	0	519	510	510	31	0	
3	0	0	0	0	0	523	511	511	32	0	
4	0	0	0	0	1	523	511	511	31	0	
5	0	0	0	0	0	518	510	513	32	0	
6	0	0	0	0	0	520	510	512	31	0	
7	0	0	0	0	0	518	510	510	32	0	
8	0	0	0	0	0	513	511	511	31	0	
9	0	0	0	0	0	513	511	515	32	0	
10	0	0	0	0	0	510	511	512	31	0	
11	0	0	0	0	0	510	509	510	31	0	
12	0	0	0	0	1	509	512	511	32	0	
13	0	0	0	0	0	507	510	509	31	0	
14	0	0	0	0	0	505	511	511	31	0	
15	0	0	0	0	0	504	507	510	31	0	
0	0	0	0	0	0	509	511	509	32	0	
1	0	0	0	0	0	511	511	510	31	0	
2	0	0	0	0	0	513	510	512	32	0	
3	0	0	0	0	0	516	508	512	32	0	
4	0	0	0	0	1	520	509	513	32	0	
5	0	0	0	0	0	522	509	511	31	0	
6	0	0	0	0	0	526	508	511	32	0	
7	0	0	0	0	0	523	510	512	32	0	
8	0	0	0	0	0	521	510	511	31	0	
9	0	0	0	0	0	518	511	509	31	0	
10	0	0	0	0	0	512	509	512	32	0	
11	0	0	0	0	0	510	511	511	32	0	
12	0	0	0	0	1	506	510	511	31	0	
13	0	0	0	0	0	503	511	510	32	0	
14	0	0	0	0	0	501	511	510	32	0	
15	0	0	0	0	0	504	511	508	31	0	
0	0	0	0	0	0	507	510	509	31	0	
1	0	0	0	0	0	511	509	509	32	0	
2	0	0	0	0	0	519	509	510	32	0	
3	0	0	0	0	0	519	510	511	32	0	
4	0	0	0	0	1	517	509	513	32	0	
5	0	0	0	0	0	519	510	513	32	0	
6	0	0	0	0	0	524	511	513	32	0	
7	0	0	0	0	0	522	509	514	32	0	
8	0	0	0	0	0	518	511	513	31	0	
9	0	0	0	0	0	519	512	510	31	0	
10	0	0	0	0	0	515	511	511	31	0	
11	0	0	0	0	0	513	508	513	32	0	
12	0	0	0	0	1	508	509	513	32	0	
13	0	0	0	0	0	507	508	511	32	0	
14	0	0	0	0	0	504	509	508	31	0	
15	0	0	0	0	0	502	510	509	31	0	
0	0	0	0	0	0	503	511	510	31	0	
1	0	0	0	0	0	508	508	510	32	0	
2	0	0	0	0	0	509	509	509	32	0	
3	0	0	0	0	0	515	510	509	31	0	
4	0	0	0	0	1	517	510	510	31	0	
5	0	0	0	0	0	522	511	509	31	0	
6	0	0	0	0	0	527	508	512	31	0	
7	0	0	0	0	0	519	510	513	32	0	
8	0	0	0	0	0	523	510	513	31	0	
9	0	0	0	0	0	515	510	512	32	0	
10	0	0	0	0	0	517	512	511	31	0	
11	0	0	0	0	0	515	511	511	31	0	
12	0	0	0	0	1	514	510	515	32	0	
13	0	0	0	0	0	508	510	510	32	0	
14	0	0	0	0	0	505	510	512	32	0	
15	0	0	0	0	0	504	510	511	31	0	
0	0	0	0	0	0	502	510	511	32	0	
1	0	0	0	0	0	501	509	513	32	0	
2	0	0	0	0	0	505	509	513	32	0	
3	0	0	0	0	0	511	510	513	31	0	
4	0	0	0	0	1	516	511	511	32	0	
5	0	0	0	0	0	517	507	511	32	0	
6	0	0	0	0	0	523	508	511	32	0	
7	0	0	0	0	0	518	507	509	31	0	
8	0	0	0	0	0	523	510	511	32	0	
9	0	0	0	0	0	519	506	513	32	0	
10	0	0	0	0	0	519	508	513	32	0	
11	0	0	0	0	0	518	508	510	31	0	
12	0	0	0	0	0	515	511	509	32	0	
13	0	0	0	0	0	511	511	511	32	0	
14	0	0	0	0	0	508	511	512	32	0	
15	0	0	0	0	0	507	511	511	32	0	
0	0	0	0	0	0	508	510	509	32	0	
1	0	0	0	0	0	508	510	508	31	0	
2	0	0	0	0	0	509	512	510	32	0	
3	0	0	0	0	0	508	508	509	32	0	
4	0	0	0	0	1	511	508	511	32	0	
5	0	0	0	0	0	513	509	512	31	0	
6	0	0	0	0	0	517	510	509	31	0	
7	0	0	0	0	0	521	510	511	32	0	
8	0	0	0	0	0	520	508	512	31	0	
9	0	0	0	0	0	520	510	512	31	0	
10	0	0	0	0	0	518	509	510	31	0	
11	0	0	0	0	0	516	511	508	31	0	
12	0	0	0	0	1	515	511	511	32	0	
13	0	0	0	0	0	512	509	512	31	0	
14	0	0	0	0	0	510	510	511	31	0	
15	0	0	0	0	0	510	509	511	32	0	
0	0	0	0	0	0	504	508	511	31	0	
1	0	0	0	0	0	504	508	510	31	0	
2	0	0	0	0	0	501	509	510	31	0	
3	0	0	0	0	0	506	511	511	31	0	
4	0	0	0	0	1	509	510	510	31	0	
5	0	0	0	0	0	515	510	512	32	0	
6	0	0	0	0	0	518	509	513	32	0	
7	0	0	0	0	0	519	510	513	31	0	
8	0	0	0	0	0	523	509	512	32	0	
9	0	0	0	0	0	519	510	511	32	0	
10	0	0	0	0	0	524	512	511	32	0	
11	0	0	0	0	0	523	511	513	32	0	
12	0	0	0	0	1	519	509	513	32	0	
13	0	0	0	0	0	514	510	514	32	0	
14	0	0	0	0	0	511	510	512	31	0	
15	0	0	0	0	0	507	509	508	31	0	
0	0	0	0	0	0	506	510	511	32	0	
1	0	0	0	0	0	503	509	511	32	0	
2	0	0	0	0	0	507	509	508	32	0	
3	0	0	0	0	0	504	509	508	32	0	
4	0	0	0	0	1	509	511	510	31	0	
5	0	0	0	0	0	511	512	511	31	0	
6	0	0	0	0	0	514	510	512	31	0	
7	0	0	0	0	0	515	511	510	31	0	
8	0	0	0	0	0	520	510	511	31	0	
9	0	0	0	0	0	520	510	511	32	0	
10	0	0	0	0	0	519	509	515	31	0	
11	0	0	0	0	0	519	510	515	31	0	
12	0	0	0	0	1	518	511	511	32	0	
13	0	0	0	0	0	515	508	512	32	0	
14	0	0	0	0	0	516	510	511	32	0	
15	0	0	0	0	0	515	509	511	32	0	
0	0	0	0	0	0	508	510	509	31	0	
1	0	0	0	0	0	507	509	510	32	0	
2	0	0	0	0	0	504	509	512	32	0	
3	0	0	0	0	0	505	509	511	32	0	
4	0	0	0	0	1	505	508	510	32	0	
5	0	0	0	0	0	505	508	510	32	0	
6	0	0	0	0	0	511	510	511	32	0	
7	0	0	0	0	0	516	510	510	31	0	
8	0	0	0	0	0	521	509	511	32	0	
9	0	0	0	0	0	521	511	510	32	0	
10	0	0	0	0	0	524	511	510	31	0	
11	0	0	0	0	0	522	511	510	31	0	
12	0	0	0	0	1	518	509	509	31	0	
13	0	0	0	0	0	516	507	511	32	0	
14	0	0	0	0	0	516	511	512	32	0	
15	0	0	0	0	0	512	510	511	32	0	
0	0	0	0	0	0	508	508	513	31	0	
1	0	0	0	0	0	507	508	511	32	0	
2	0	0	0	0	0	504	509	510	31	0	
3	0	0	0	0	0	501	509	511	31	0	
4	0	0	0	0	1	505	507	510	32	0	
5	0	0	0	0	0	509	509	510	32	0	
6	0	0	0	0	0	512	508	511	32	0	
7	0	0	0	0	0	515	508	510	31	0	
8	0	0	0	0	0	519	511	508	31	0	
9	0	0	0	0	0	518	513	510	32	0	
10	0	0	0	0	0	519	513	511	31	0	
11	0	0	0	0	0	522	511	512	32	0	
12	0	0	0	0	1	521	509	515	31	0	
13	0	0	0	0	0	515	509	515	32	0	
14	0	0	0	0	0	513	508	512	32	0	
15	0	0	0	0	0	512	512	511	31	0	
0	0	0	0	0	0	508	512	510	31	0	
1	0	0	0	0	0	508	512	508	32	0	
2	0	0	0	0	0	505	511	509	32	0	
3	0	0	0	0	0	504	509	511	31	0	
4	0	0	0	0	1	506	511	512	32	0	
5	0	0	0	0	0	509	510	514	32	0	
6	0	0	0	0	0	508	509	512	32	0	
7	0	0	0	0	0	509	508	511	32	0	
8	0	0	0	0	0	513	506	511	31	0	
9	0	0	0	0	0	517	507	511	31	0	
10	0	0	0	0	0	519	508	512	31	0	
11	0	0	0	0	0	519	510	511	31	0	
12	0	0	0	0	0	522	508	512	31	0	
13	0	0	0	0	0	521	508	513	31	0	
14	0	0	0	0	0	518	511	513	31	0	
15	0	0	0	0	0	515	510	512	31	0	
0	0	0	0	0	0	512	510	508	31	0	
1	0	0	0	0	0	510	510	510	31	0	
2	0	0	0	0	0	508	512	509	31	0	
3	0	0	0	0	0	502	511	508	32	0	
4	0	0	0	0	0	506	508	509	32	0	
5	0	0	0	0	0	507	511	509	32	0	
6	0	0	0	0	0	509	511	508	31	0	
7	0	0	0	0	0	510	509	511	32	0	
8	0	0	0	0	0	513	511	511	32	0	
9	0	0	0	0	0	516	511	512	31	0	
10	0	0	0	0	0	521	511	512	31	0	
11	0	0	0	0	0	520	510	512	32	0	
12	0	0	0	0	1	521	509	512	32	0	
13	0	0	0	0	0	523	508	513	31	0	
14	0	0	0	0	0	521	509	514	32	0	
15	0	0	0	0	0	516	505	513	32	0	
0	0	0	0	0	0	513	507	512	31	0	
1	0	0	0	0	0	513	507	514	32	0	
2	0	0	0	0	0	511	510	509	32	0	
3	0	0	0	0	0	509	511	510	31	0	
4	0	0	0	0	1	505	510	509	32	0	
5	0	0	0	0	0	503	509	509	32	0	
6	0	0	0	0	0	504	510	509	32	0	
7	0	0	0	0	0	504	509	510	31	0	
8	0	0	0	0	0	509	510	512	32	0	
9	0	0	0	0	0	515	509	512	31	0	
10	0	0	0	0	0	519	510	511	31	0	
11	0	0	0	0	0	518	508	512	32	0	
12	0	0	0	0	1	523	509	511	32	0	
13	0	0	0	0	0	523	507	513	32	0	
14	0	0	0	0	0	520	509	511	31	0	
15	0	0	0	0	0	518	510	511	31	0	
0	0	0	0	0	0	518	512	510	31	0	
1	0	0	0	0	0	517	511	510	32	0	
2	0	0	0	0	0	510	512	510	31	0	
3	0	0	0	0	0	508	511	509	31	0	
4	0	0	0	0	1	502	510	508	31	0	
5	0	0	0	0	0	502	511	510	31	0	
6	0	0	0	0	0	506	507	508	32	0	
7	0	0	0	0	0	504	509	508	32	0	
8	0	0	0	0	0	511	510	510	31	0	
9	0	0	0	0	0	509	511	511	32	0	
10	0	0	0	0	0	514	508	512	31	0	
11	0	0	0	0	0	519	509	510	31	0	
12	0	0	0	0	1	523	511	514	32	0	
13	0	0	0	0	0	524	511	511	32	0	
14	0	0	0	0	0	525	510	511	32	0	
15	0	0	0	0	0	519	510	511	32	0	
0	0	0	0	0	0	520	508	515	32	0	
1	0	0	0	0	0	515	509	511	31	0	
2	0	0	0	0	0	514	510	512	31	0	
3	0	0	0	0	0	512	509	510	32	0	
4	0	0	0	0	1	507	509	510	31	0	
5	0	0	0	0	0	503	511	509	32	0	
6	0	0	0	0	0	501	511	513	32	0	
7	0	0	0	0	0	503	508	511	31	0	
8	0	0	0	0	0	510	509	513	32	0	
9	0	0	0	0	0	509	508	509	32	0	
10	0	0	0	0	0	512	508	510	32	0	
11	0	0	0	0	0	515	508	512	31	0	
12	0	0	0	0	1	517	508	511	31	0	
13	0	0	0	0	0	522	509	511	32	0	
14	0	0	0	0	0	523	511	512	31	0	
15	0	0	0	0	0	523	510	511	32	0	
0	0	0	0	0	0	521	510	509	31	0	
1	0	0	0	0	0	518	511	513	32	0	
2	0	0	0	0	0	514	511	513	31	0	
3	0	0	0	0	0	512	508	511	32	0	
4	0	0	0	0	1	506	509	513	31	0	
5	0	0	0	0	0	506	510	512	31	0	
6	0	0	0	0	0	507	511	511	32	0	
7	0	0	0	0	0	502	510	509	32	0	
8	0	0	0	0	0	508	509	509	32	0	
9	0	0	0	0	0	511	510	511	32	0	
10	0	0	0	0	0	510	511	511	31	0	
11	0	0	0	0	0	513	508	513	32	0	
12	0	0	0	0	1	514	510	513	31	0	
13	0	0	0	0	0	517	510	510	31	0	
14	0	0	0	0	0	522	510	511	32	0	
15	0	0	0	0	0	521	510	511	31	0	
0	0	0	0	0	0	519	510	512	32	0	
1	0	0	0	0	0	514	509	510	31	0	
2	0	0	0	0	0	515	510	511	31	0	
3	0	0	0	0	0	514	509	512	32	0	
4	0	0	0	0	1	510	510	515	32	0	
5	0	0	0	0	0	510	508	514	32	0	
6	0	0	0	0	0	508	507	510	32	0	
7	0	0	0	0	0	506	510	510	32	0	
8	0	0	0	0	0	504	509	510	31	0	
9	0	0	0	0	0	507	510	510	31	0	
10	0	0	0	0	0	507	509	510	31	0	
11	0	0	0	0	0	509	510	510	32	0	
12	0	0	0	0	1	514	511	510	31	0	
13	0	0	0	0	0	518	511	512	31	0	
14	0	0	0	0	0	521	509	512	32	0	
15	0	0	0	0	0	521	508	512	32	0	
0	0	0	0	0	0	523	511	511	31	0	
1	0	0	0	0	0	518	509	513	31	0	
2	0	0	0	0	0	517	511	508	32	0	
3	0	0	0	0	0	513	509	510	32	0	
4	0	0	0	0	0	513	510	511	32	0	
5	0	0	0	0	0	511	510	510	32	0	
6	0	0	0	0	0	504	508	510	32	0	
7	0	0	0	0	0	504	511	512	32	0	
8	0	0	0	0	0	505	510	510	32	0	
9	0	0	0	0	0	507	511	508	31	0	
10	0	0	0	0	0	508	510	510	31	0	
11	0	0	0	0	0	508	510	510	31	0	
12	0	0	0	0	1	511	510	512	32	0	
13	0	0	0	0	0	516	508	514	32	0	
14	0	0	0	0	0	520	509	513	32	0	
15	0	0	0	0	0	521	511	514	32	0	
0	0	0	0	0	0	524	510	513	31	0	
1	0	0	0	0	0	524	510	508	31	0	
2	0	0	0	0	0	521	511	511	32	0	
3	0	0	0	0	0	520	512	509	31	0	
4	0	0	0	0	1	518	508	508	31	0	
5	0	0	0	0	0	513	510	509	32	0	
6	0	0	0	0	0	511	509	512	32	0	
7	0	0	0	0	0	505	508	511	32	0	
8	0	0	0	0	0	500	507	513	32	0	
9	0	0	0	0	0	500	508	513	32	0	
10	0	0	0	0	0	503	510	512	32	0	
11	0	0	0	0	0	505	511	509	31	0	
12	0	0	0	0	1	512	509	511	32	0	
13	0	0	0	0	0	514	510	508	32	0	
14	0	0	0	0	0	515	510	512	32	0	
15	0	0	0	0	0	518	509	510	31	0	
0	0	0	0	0	0	519	511	513	31	0	
1	0	0	0	0	0	519	511	512	31	0	
2	0	0	0	0	0	516	511	511	31	0	
3	0	0	0	0	0	519	511	511	32	0	
4	0	0	0	0	1	518	510	512	31	0	
5	0	0	0	0	0	512	510	515	32	0	
6	0	0	0	0	0	512	512	511	32	0	
7	0	0	0	0	0	505	509	511	32	0	
8	0	0	0	0	0	507	509	515	32	0	
9	0	0	0	0	0	508	511	511	32	0	
10	0	0	0	0	0	508	511	511	31	0	
11	0	0	0	0	0	510	509	510	31	0	
12	0	0	0	0	1	509	512	513	32	0	
13	0	0	0	0	0	514	512	513	31	0	
14	0	0	0	0	0	512	507	510	31	0	
15	0	0	0	0	0	517	507	512	32	0	
0	0	0	0	0	0	522	509	511	31	0	
1	0	0	0	0	0	523	509	511	32	0	
2	0	0	0	0	0	519	508	511	32	0	
3	0	0	0	0	0	518	509	512	31	0	
4	0	0	0	0	1	513	510	511	32	0	
5	0	0	0	0	0	509	511	510	31	0	
6	0	0	0	0	0	513	510	510	31	0	
7	0	0	0	0	0	508	510	513	31	0	
8	0	0	0	0	0	504	512	511	31	0	
9	0	0	0	0	0	504	511	509	31	0	
10	0	0	0	0	0	504	512	508	31	0	
11	0	0	0	0	0	507	510	509	32	0	
12	0	0	0	0	1	511	511	511	32	0	
13	0	0	0	0	0	507	508	514	32	0	
14	0	0	0	0	0	515	510	513	32	0	
15	0	0	0	0	0	515	510	514	32	0	
0	0	0	0	0	0	519	510	513	32	0	
1	0	0	0	0	0	523	511	515	32	0	
2	0	0	0	0	0	522	510	513	32	0	
3	0	0	0	0	0	521	509	511	32	0	
4	0	0	0	0	1	518	508	513	32	0	
5	0	0	0	0	0	519	508	513	32	0	
6	0	0	0	0	0	514	511	512	32	0	
7	0	0	0	0	0	515	508	508	31	0	
8	0	0	0	0	0	511	509	507	31	0	
9	0	0	0	0	0	508	508	506	31	0	
10	0	0	0	0	0	508	509	507	32	0	
11	0	0	0	0	0	506	508	508	31	0	
12	0	0	0	0	1	508	509	507	31	0	
13	0	0	0	0	0	508	507	508	31	0	
14	0	0	0	0	0	510	508	508	31	0	
15	0	0	0	0	0	515	507	507	31	0	
0	0	0	0	0	0	519	507	508	31	0	
1	0	0	0	0	0	520	508	507	31	0	
2	0	0	0	0	0	522	507	507	31	0	
3	0	0	0	0	0	520	510	511	31	0	
4	0	0	0	0	1	521	510	512	31	0	
5	0	0	0	0	0	521	510	511	31	0	
6	0	0	0	0	0	518	509	512	32	0	
7	0	0	0	0	0	514	511	511	32	0	
8	0	0	0	0	0	508	510	511	31	0	
9	0	0	0	0	0	507	511	509	31	0	
10	0	0	0	0	0	500	511	512	32	0	
11	0	0	0	0	0	504	510	509	32	0	
12	0	0	0	0	1	503	509	512	32	0	
13	0	0	0	0	0	505	510	514	32	0	
14	0	0	0	0	0	509	510	515	32	0	
15	0	0	0	0	0	511	512	516	32	0	
0	0	0	0	0	0	515	512	513	32	0	
1	0	0	0	0	0	521	511	514	32	0	
2	0	0	0	0	0	522	511	513	32	0	
3	0	0	0	0	0	524	508	514	32	0	
4	0	0	0	0	1	524	510	515	32	0	
5	0	0	0	0	0	520	512	512	32	0	
6	0	0	0	0	0	519	511	515	32	0	
7	0	0	0	0	0	515	510	512	32	0	
8	0	0	0	0	0	509	509	511	32	0	
9	0	0	0	0	0	505	510	511	31	0	
10	0	0	0	0	0	507	509	511	31	0	
11	0	0	0	0	0	505	511	509	32	0	
12	0	0	0	0	1	503	511	509	32	0	
13	0	0	0	0	0	502	511	511	32	0	
14	0	0	0	0	0	509	510	512	32	0	
15	0	0	0	0	0	509	508	511	31	0	
0	0	0	0	0	0	513	511	511	31	0	
1	0	0	0	0	0	518	510	512	31	0	
2	0	0	0	0	0	519	509	511	31	0	
3	0	0	0	0	0	521	510	511	31	0	
4	0	0	0	0	0	522	511	511	31	0	
5	0	0	0	0	0	522	510	511	31	0	
6	0	0	0	0	0	519	509	511	32	0	
7	0	0	0	0	0	515	510	510	32	0	
8	0	0	0	0	0	514	509	510	32	0	
9	0	0	0	0	0	508	514	510	32	0	
10	0	0	0	0	0	508	511	510	32	0	
11	0	0	0	0	0	505	508	510	32	0	
12	0	0	0	0	0	504	506	509	32	0	
13	0	0	0	0	0	503	508	511	32	0	
14	0	0	0	0	0	509	509	510	32	0	
15	0	0	0	0	0	510	511	511	32	0	
0	0	0	0	0	0	510	511	511	31	0	
1	0	0	0	0	0	517	511	511	31	0	
2	0	0	0	0	0	518	510	512	31	0	
3	0	0	0	0	0	520	508	512	31	0	
4	0	0	0	0	0	521	511	513	32	0	
5	0	0	0	0	0	524	511	514	32	0	
6	0	0	0	0	0	519	511	512	31	0	
7	0	0	0	0	0	518	511	512	31	0	
8	0	0	0	0	0	516	509	511	31	0	
9	0	0	0	0	0	512	510	512	31	0	
10	0	0	0	0	0	508	509	513	32	0	
11	0	0	0	0	0	509	511	512	32	0	
12	0	0	0	0	1	504	508	510	32	0	
13	0	0	0	0	0	504	509	511	31	0	
14	0	0	0	0	0	505	510	510	31	0	
15	0	0	0	0	0	504	509	511	31	0	
0	0	0	0	0	0	512	510	510	31	0	
1	0	0	0	0	0	512	508	504	31	0	
2	0	0	0	0	0	518	511	508	32	0	
3	0	0	0	0	0	522	509	508	31	0	
4	0	0	0	0	1	520	508	509	31	0	
5	0	0	0	0	0	523	507	511	32	0	
6	0	0	0	0	0	519	511	511	32	0	
7	0	0	0	0	0	517	510	511	31	0	
8	0	0	0	0	0	519	510	513	31	0	
9	0	0	0	0	0	515	511	512	31	0	
10	0	0	0	0	0	511	510	512	32	0	
11	0	0	0	0	0	510	511	514	32	0	
12	0	0	0	0	1	506	510	512	32	0	
13	0	0	0	0	0	505	509	510	32	0	
14	0	0	0	0	0	505	511	512	32	0	
15	0	0	0	0	0	502	507	511	32	0	
0	0	0	0	0	0	506	508	509	32	0	
1	0	0	0	0	0	511	508	512	31	0	
2	0	0	0	0	0	516	508	512	31	0	
3	0	0	0	0	0	518	508	510	31	0	
4	0	0	0	0	1	520	510	511	31	0	
5	0	0	0	0	0	521	509	512	31	0	
6	0	0	0	0	0	518	510	512	32	0	
7	0	0	0	0	0	518	510	511	31	0	
8	0	0	0	0	0	515	510	512	32	0	
9	0	0	0	0	0	516	508	512	32	0	
10	0	0	0	0	0	511	512	512	32	0	
11	0	0	0	0	0	513	511	512	31	0	
12	0	0	0	0	1	507	510	514	32	0	
13	0	0	0	0	0	504	508	510	31	0	
14	0	0	0	0	0	503	509	510	31	0	
15	0	0	0	0	0	504	507	509	32	0	
0	0	0	0	0	0	503	507	508	32	0	
1	0	0	0	0	0	507	509	511	31	0	
2	0	0	0	0	0	510	510	511	32	0	
3	0	0	0	0	0	516	512	511	32	0	
4	0	0	0	0	1	521	510	512	31	0	
5	0	0	0	0	0	525	512	512	31	0	
6	0	0	0	0	0	525	512	513	32	0	
7	0	0	0	0	0	521	509	512	32	0	
8	0	0	0	0	0	521	512	511	32	0	
9	0	0	0	0	0	518	511	512	32	0	
10	0	0	0	0	0	517	510	511	32	0	
11	0	0	0	0	0	515	512	511	31	0	
12	0	0	0	0	1	507	508	510	31	0	
13	0	0	0	0	0	505	509	509	32	0	
14	0	0	0	0	0	507	510	511	32	0	
15	0	0	0	0	0	501	510	509	31	0	
0	0	0	0	0	0	505	509	510	31	0	
1	0	0	0	0	0	505	510	511	32	0	
2	0	0	0	0	0	508	509	510	32	0	
3	0	0	0	0	0	515	510	512	32	0	
4	0	0	0	0	1	516	510	511	32	0	
5	0	0	0	0	0	521	509	512	32	0	
6	0	0	0	0	0	522	509	511	31	0	
7	0	0	0	0	0	522	510	510	31	0	
8	0	0	0	0	0	524	510	510	31	0	
9	0	0	0	0	0	520	510	511	32	0	
10	0	0	0	0	0	515	507	509	32	0	
11	0	0	0	0	0	512	511	511	32	0	
12	0	0	0	0	1	509	509	511	31	0	
13	0	0	0	0	0	507	508	510	31	0	
14	0	0	0	0	0	504	511	510	32	0	
15	0	0	0	0	0	501	511	509	31	0	
0	0	0	0	0	0	507	512	510	32	0	
1	0	0	0	0	0	504	510	509	31	0	
2	0	0	0	0	0	507	511	511	31	0	
3	0	0	0	0	0	512	509	510	31	0	
4	0	0	0	0	1	515	509	512	32	0	
5	0	0	0	0	0	518	508	513	32	0	
6	0	0	0	0	0	518	508	512	32	0	
7	0	0	0	0	0	519	509	511	31	0	
8	0	0	0	0	0	523	509	512	31	0	
9	0	0	0	0	0	521	511	511	31	0	
10	0	0	0	0	0	520	511	510	31	0	
11	0	0	0	0	0	519	511	508	31	0	
12	0	0	0	0	0	515	511	511	32	0	
13	0	0	0	0	0	512	510	510	31	0	
14	0	0	0	0	0	510	512	513	32	0	
15	0	0	0	0	0	503	509	510	31	0	
0	0	0	0	0	0	503	508	512	32	0	
1	0	0	0	0	0	503	509	511	32	0	
2	0	0	0	0	0	504	509	510	32	0	
3	0	0	0	0	0	505	509	512	32	0	
4	0	0	0	0	1	508	509	511	32	0	
5	0	0	0	0	0	514	511	514	32	0	
6	0	0	0	0	0	513	510	511	31	0	
7	0	0	0	0	0	518	510	512	32	0	
8	0	0	0	0	0	520	509	511	31	0	
9	0	0	0	0	0	517	509	509	31	0	
10	0	0	0	0	0	516	509	510	32	0	
11	0	0	0	0	0	517	510	512	31	0	
12	0	0	0	0	0	515	509	510	31	0	
13	0	0	0	0	0	516	509	513	32	0	
14	0	0	0	0	0	510	510	511	31	0	
15	0	0	0	0	0	503	511	508	31	0	
0	0	0	0	0	0	508	508	508	31	0	
1	0	0	0	0	0	507	510	510	31	0	
2	0	0	0	0	0	508	510	510	31	0	
3	0	0	0	0	0	509	511	512	31	0	
4	0	0	0	0	1	510	511	510	32	0	
5	0	0	0	0	0	515	509	511	31	0	
6	0	0	0	0	0	520	508	513	31	0	
7	0	0	0	0	0	521	512	511	31	0	
8	0	0	0	0	0	521	510	514	32	0	
9	0	0	0	0	0	520	508	514	32	0	
10	0	0	0	0	0	519	510	513	32	0	
11	0	0	0	0	0	519	510	512	32	0	
12	0	0	0	0	1	517	509	513	31	0	
13	0	0	0	0	0	511	508	510	31	0	
14	0	0	0	0	0	508	509	512	32	0	
15	0	0	0	0	0	507	509	513	32	0	
0	0	0	0	0	0	506	510	511	32	0	
1	0	0	0	0	0	507	510	510	32	0	
2	0	0	0	0	0	505	508	511	32	0	
3	0	0	0	0	0	506	508	511	32	0	
4	0	0	0	0	1	509	509	511	32	0	
5	0	0	0	0	0	511	510	511	31	0	
6	0	0	0	0	0	515	507	511	31	0	
7	0	0	0	0	0	517	512	510	31	0	
8	0	0	0	0	0	524	510	513	31	0	
9	0	0	0	0	0	524	511	513	32	0	
10	0	0	0	0	0	524	509	513	32	0	
11	0	0	0	0	0	522	509	511	31	0	
12	0	0	0	0	1	521	510	511	32	0	
13	0	0	0	0	0	520	511	511	31	0	
14	0	0	0	0	0	518	509	512	32	0	
15	0	0	0	0	0	515	509	511	31	0	
0	0	0	0	0	0	511	508	511	31	0	
1	0	0	0	0	0	505	508	510	31	0	
2	0	0	0	0	0	502	511	511	31	0	
3	0	0	0	0	0	504	509	512	31	0	
4	0	0	0	0	1	507	508	514	32	0	
5	0	0	0	0	0	507	508	510	32	0	
6	0	0	0	0	0	509	510	509	31	0	
7	0	0	0	0	0	514	512	510	31	0	
8	0	0	0	0	0	517	509	508	31	0	
9	0	0	0	0	0	521	510	509	32	0	
10	0	0	0	0	0	522	508	513	31	0	
11	0	0	0	0	0	522	509	513	32	0	
12	0	0	0	0	1	520	510	512	32	0	
13	0	0	0	0	0	518	508	513	32	0	
14	0	0	0	0	0	513	508	513	32	0	
15	0	0	0	0	0	513	511	511	32	0	
0	0	0	0	0	0	509	511	511	32	0	
1	0	0	0	0	0	510	512	510	31	0	
2	0	0	0	0	0	500	511	509	31	0	
3	0	0	0	0	0	502	511	508	32	0	
4	0	0	0	0	1	503	509	510	32	0	
5	0	0	0	0	0	507	508	510	32	0	
6	0	0	0	0	0	508	508	509	32	0	
7	0	0	0	0	0	512	509	509	31	0	
8	0	0	0	0	0	515	509	510	31	0	
9	0	0	0	0	0	519	509	512	32	0	
10	0	0	0	0	0	519	509	512	32	0	
11	0	0	0	0	0	525	508	511	31	0	
12	0	0	0	0	1	523	511	513	32	0	
13	0	0	0	0	0	519	510	513	32	0	
14	0	0	0	0	0	515	510	511	32	0	
15	0	0	0	0	0	511	508	511	31	0	
0	0	0	0	0	0	511	508	510	32	0	
1	0	0	0	0	0	505	510	509	32	0	
2	0	0	0	0	0	508	510	511	32	0	
3	0	0	0	0	0	511	509	510	32	0	
4	0	0	0	0	1	504	508	511	31	0	
5	0	0	0	0	0	510	509	511	31	0	
6	0	0	0	0	0	510	510	512	31	0	
7	0	0	0	0	0	509	510	510	31	0	
8	0	0	0	0	0	513	510	509	32	0	
9	0	0	0	0	0	516	508	509	32	0	
10	0	0	0	0	0	518	510	509	31	0	
11	0	0	0	0	0	520	510	512	32	0	
12	0	0	0	0	1	520	510	512	31	0	
13	0	0	0	0	0	520	510	511	31	0	
14	0	0	0	0	0	516	509	512	31	0	
15	0	0	0	0	0	512	512	515	31	0	
0	0	0	0	0	0	515	510	512	32	0	
1	0	0	0	0	0	517	509	512	31	0	
2	0	0	0	0	0	508	508	510	32	0	
3	0	0	0	0	0	508	509	510	32	0	
4	0	0	0	0	1	508	507	510	31	0	
5	0	0	0	0	0	508	509	510	31	0	
6	0	0	0	0	0	505	511	509	31	0	
7	0	0	0	0	0	507	509	508	31	0	
8	0	0	0	0	0	513	509	511	32	0	
9	0	0	0	0	0	509	510	511	31	0	
10	0	0	0	0	0	514	510	512	31	0	
11	0	0	0	0	0	516	512	509	32	0	
12	0	0	0	0	0	519	511	509	31	0	
13	0	0	0	0	0	519	508	512	32	0	
14	0	0	0	0	0	518	508	512	32	0	
15	0	0	0	0	0	517	508	513	32	0	
0	0	0	0	0	0	517	510	511	32	0	
1	0	0	0	0	0	515	508	512	32	0	
2	0	0	0	0	0	513	510	512	32	0	
3	0	0	0	0	0	511	510	510	32	0	
4	0	0	0	0	0	508	511	510	31	0	
5	0	0	0	0	0	505	510	511	31	0	
6	0	0	0	0	0	505	512	509	32	0	
7	0	0	0	0	0	510	512	511	31	0	
8	0	0	0	0	0	506	510	509	31	0	
9	0	0	0	0	0	510	511	513	31	0	
10	0	0	0	0	0	515	510	512	32	0	
11	0	0	0	0	0	520	508	512	31	0	
12	0	0	0	0	0	521	510	513	32	0	
13	0	0	0	0	0	521	508	512	32	0	
14	0	0	0	0	0	520	510	511	32	0	
15	0	0	0	0	0	517	510	511	32	0	
0	0	0	0	0	0	518	509	512	32	0	
1	0	0	0	0	0	514	507	511	32	0	
2	0	0	0	0	0	510	512	508	31	0	
3	0	0	0	0	0	506	511	509	31	0	
4	0	0	0	0	1	505	510	510	31	0	
5	0	0	0	0	0	504	508	510	31	0	
6	0	0	0	0	0	504	510	510	31	0	
7	0	0	0	0	0	506	510	510	31	0	
8	0	0	0	0	0	508	509	511	31	0	
9	0	0	0	0	0	511	507	512	32	0	
10	0	0	0	0	0	515	507	511	32	0	
11	0	0	0	0	0	519	508	513	32	0	
12	0	0	0	0	1	519	509	513	32	0	
13	0	0	0	0	0	522	510	511	31	0	
14	0	0	0	0	0	519	511	511	32	0	
15	0	0	0	0	0	519	511	513	32	0	
0	0	0	0	0	0	518	510	511	32	0	
1	0	0	0	0	0	516	508	510	31	0	
2	0	0	0	0	0	512	509	512	31	0	
3	0	0	0	0	0	510	508	513	32	0	
4	0	0	0	0	1	508	511	509	32	0	
5	0	0	0	0	0	505	512	510	32	0	
6	0	0	0	0	0	506	511	510	32	0	
7	0	0	0	0	0	506	511	508	31	0	
8	0	0	0	0	0	509	509	511	32	0	
9	0	0	0	0	0	508	510	509	31	0	
10	0	0	0	0	0	511	510	511	32	0	
11	0	0	0	0	0	511	510	511	31	0	
12	0	0	0	0	1	517	511	511	31	0	
13	0	0	0	0	0	518	508	513	31	0	
14	0	0	0	0	0	525	508	512	32	0	
15	0	0	0	0	0	522	508	513	32	0	
0	0	0	0	0	0	517	512	511	31	0	
1	0	0	0	0	0	517	512	510	31	0	
2	0	0	0	0	0	519	510	510	31	0	
3	0	0	0	0	0	519	511	513	31	0	
4	0	0	0	0	1	512	507	510	31	0	
5	0	0	0	0	0	504	509	510	31	0	
6	0	0	0	0	0	503	509	508	31	0	
7	0	0	0	0	0	503	511	510	32	0	
8	0	0	0	0	0	508	510	511	32	0	
9	0	0	0	0	0	509	508	513	32	0	
10	0	0	0	0	0	512	510	512	32	0	
11	0	0	0	0	0	512	510	511	31	0	
12	0	0	0	0	1	513	508	511	31	0	
13	0	0	0	0	0	518	509	511	32	0	
14	0	0	0	0	0	519	508	511	32	0	
15	0	0	0	0	0	518	507	511	32	0	
0	0	0	0	0	0	520	510	511	32	0	
1	0	0	0	0	0	517	510	514	31	0	
2	0	0	0	0	0	517	513	512	31	0	
3	0	0	0	0	0	516	509	512	31	0	
4	0	0	0	0	1	512	507	511	31	0	
5	0	0	0	0	0	514	510	512	31	0	
6	0	0	0	0	0	508	511	511	32	0	
7	0	0	0	0	0	505	509	509	31	0	
8	0	0	0	0	0	509	508	510	31	0	
9	0	0	0	0	0	506	508	510	32	0	
10	0	0	0	0	0	508	510	512	32	0	
11	0	0	0	0	0	510	511	511	31	0	
12	0	0	0	0	1	515	510	511	32	0	
13	0	0	0	0	0	515	512	510	31	0	
14	0	0	0	0	0	522	510	509	31	0	
15	0	0	0	0	0	523	511	513	31	0	
0	0	0	0	0	0	522	511	510	32	0	
1	0	0	0	0	0	525	511	511	32	0	
2	0	0	0	0	0	519	510	512	32	0	
3	0	0	0	0	0	517	508	511	32	0	
4	0	0	0	0	1	518	509	514	31	0	
5	0	0	0	0	0	512	510	510	31	0	
6	0	0	0	0	0	508	509	508	32	0	
7	0	0	0	0	0	507	509	510	32	0	
8	0	0	0	0	0	506	510	510	32	0	
9	0	0	0	0	0	502	510	508	32	0	
10	0	0	0	0	0	503	510	511	32	0	
11	0	0	0	0	0	510	510	509	32	0	
12	0	0	0	0	1	509	508	513	32	0	
13	0	0	0	0	0	515	508	511	31	0	
14	0	0	0	0	0	520	508	512	32	0	
15	0	0	0	0	0	522	509	513	32	0	
0	0	0	0	0	0	520	511	512	32	0	
1	0	0	0	0	0	521	511	514	31	0	
2	0	0	0	0	0	513	510	511	32	0	
3	0	0	0	0	0	514	510	513	32	0	
4	0	0	0	0	1	513	509	513	32	0	
5	0	0	0	0	0	513	511	512	31	0	
6	0	0	0	0	0	510	511	510	31	0	
7	0	0	0	0	0	508	508	510	32	0	
8	0	0	0	0	0	505	511	510	31	0	
9	0	0	0	0	0	504	509	512	31	0	
10	0	0	0	0	0	508	508	511	32	0	
11	0	0	0	0	0	506	508	509	31	0	
12	0	0	0	0	0	509	508	511	31	0	
13	0	0	0	0	0	515	508	513	32	0	
14	0	0	0	0	0	516	510	508	32	0	
15	0	0	0	0	0	519	509	511	31	0	
0	0	0	0	0	0	519	510	512	31	0	
1	0	0	0	0	0	521	511	514	32	0	
2	0	0	0	0	0	521	509	513	32	0	
3	0	0	0	0	0	518	511	516	32	0	
4	0	0	0	0	1	518	511	512	31	0	
5	0	0	0	0	0	516	509	512	31	0	
6	0	0	0	0	0	512	511	509	31	0	
7	0	0	0	0	0	510	508	507	31	0	
8	0	0	0	0	0	504	510	509	32	0	
9	0	0	0	0	0	500	510	510	32	0	
10	0	0	0	0	0	498	511	508	31	0	
11	0	0	0	0	0	503	511	509	31	0	
12	0	0	0	0	0	508	509	510	32	0	
13	0	0	0	0	0	508	509	510	32	0	
14	0	0	0	0	0	511	508	510	32	0	
15	0	0	0	0	0	515	509	510	32	0	
0	0	0	0	0	0	519	510	512	32	0	
1	0	0	0	0	0	523	510	512	31	0	
2	0	0	0	0	0	520	510	511	32	0	
3	0	0	0	0	0	521	509	512	32	0	
4	0	0	0	0	1	515	509	511	31	0	
5	0	0	0	0	0	515	508	511	31	0	
6	0	0	0	0	0	511	509	512	32	0	
7	0	0	0	0	0	506	508	512	32	0	
8	0	0	0	0	0	508	508	510	32	0	
9	0	0	0	0	0	506	510	510	32	0	
10	0	0	0	0	0	508	509	508	31	0	
11	0	0	0	0	0	504	511	512	32	0	
12	0	0	0	0	1	503	513	510	31	0	
13	0	0	0	0	0	510	510	512	32	0	
14	0	0	0	0	0	513	510	509	31	0	
15	0	0	0	0	0	514	511	513	31	0	
0	0	0	0	0	0	520	511	512	31	0	
1	0	0	0	0	0	520	509	512	32	0	
2	0	0	0	0	0	523	510	511	31	0	
3	0	0	0	0	0	523	510	512	32	0	
4	0	0	0	0	1	521	510	512	31	0	
5	0	0	0	0	0	520	511	511	31	0	
6	0	0	0	0	0	516	512	512	32	0	
7	0	0	0	0	0	515	510	513	31	0	
8	0	0	0	0	0	511	509	512	32	0	
9	0	0	0	0	0	506	509	511	32	0	
10	0	0	0	0	0	501	510	511	32	0	
11	0	0	0	0	0	503	508	512	32	0	
12	0	0	0	0	1	504	510	511	31	0	
13	0	0	0	0	0	507	509	509	31	0	
14	0	0	0	0	0	510	508	512	31	0	
15	0	0	0	0	0	512	508	510	32	0	
0	0	0	0	0	0	519	509	511	31	0	
1	0	0	0	0	0	524	510	512	32	0	
2	0	0	0	0	0	524	509	512	32	0	
3	0	0	0	0	0	521	509	513	32	0	
4	0	0	0	0	1	521	510	512	31	0	
5	0	0	0	0	0	517	512	512	31	0	
6	0	0	0	0	0	515	510	510	32	0	
7	0	0	0	0	0	517	508	510	31	0	
8	0	0	0	0	0	510	509	511	32	0	
9	0	0	0	0	0	508	511	509	32	0	
10	0	0	0	0	0	508	510	509	32	0	
11	0	0	0	0	0	507	511	509	32	0	
12	0	0	0	0	1	505	510	510	31	0	
13	0	0	0	0	0	506	508	510	31	0	
14	0	0	0	0	0	509	511	513	31	0	
15	0	0	0	0	0	512	508	515	31	0	
0	0	0	0	0	0	515	510	511	31	0	
1	0	0	0	0	0	518	511	511	31	0	
2	0	0	0	0	0	515	510	511	31	0	
3	0	0	0	0	0	516	510	512	32	0	
4	0	0	0	0	1	519	511	511	31	0	
5	0	0	0	0	0	517	509	512	32	0	
6	0	0	0	0	0	517	510	513	32	0	
7	0	0	0	0	0	513	508	510	31	0	
8	0	0	0	0	0	512	509	509	32	0	
9	0	0	0	0	0	510	511	509	32	0	
10	0	0	0	0	0	508	510	512	31	0	
11	0	0	0	0	0	507	511	511	32	0	
12	0	0	0	0	1	502	509	512	32	0	
13	0	0	0	0	0	505	510	512	31	0	
14	0	0	0	0	0	508	509	511	32	0	
15	0	0	0	0	0	510	509	510	31	0	
0	0	0	0	0	0	509	509	510	31	0	
1	0	0	0	0	0	515	510	510	31	0	
2	0	0	0	0	0	515	508	513	32	0	
3	0	0	0	0	0	518	508	512	32	0	
4	0	0	0	0	1	525	510	509	32	0	
5	0	0	0	0	0	517	509	508	31	0	
6	0	0	0	0	0	521	511	508	31	0	
7	0	0	0	0	0	520	509	510	32	0	
8	0	0	0	0	0	516	509	513	31	0	
9	0	0	0	0	0	512	511	512	32	0	
10	0	0	0	0	0	511	510	513	32	0	
11	0	0	0	0	0	508	510	510	32	0	
12	0	0	0	0	1	508	510	507	32	0	
13	0	0	0	0	0	505	512	510	31	0	
14	0	0	0	0	0	506	510	509	31	0	
15	0	0	0	0	0	504	510	510	31	0	
0	0	0	0	0	0	510	510	511	32	0	
1	0	0	0	0	0	512	511	512	32	0	
2	0	0	0	0	0	513	508	512	32	0	
3	0	0	0	0	0	520	510	510	31	0	
4	0	0	0	0	0	520	511	511	32	0	
5	0	0	0	0	0	524	508	512	32	0	
6	0	0	0	0	0	519	512	510	32	0	
7	0	0	0	0	0	518	513	511	32	0	
8	0	0	0	0	0	516	511	511	31	0	
9	0	0	0	0	0	515	508	511	31	0	
10	0	0	0	0	0	508	506	511	31	0	
11	0	0	0	0	0	507	510	511	31	0	
12	0	0	0	0	0	506	508	510	32	0	
13	0	0	0	0	0	507	510	510	32	0	
14	0	0	0	0	0	505	510	510	31	0	
15	0	0	0	0	0	507	510	511	31	0	
0	0	0	0	0	0	511	510	510	32	0	
1	0	0	0	0	0	513	509	512	32	0	
2	0	0	0	0	0	518	509	511	31	0	
3	0	0	0	0	0	519	512	511	31	0	
4	0	0	0	0	0	519	508	511	31	0	
5	0	0	0	0	0	522	511	511	31	0	
6	0	0	0	0	0	523	510	510	32	0	
7	0	0	0	0	0	523	510	512	32	0	
8	0	0	0	0	0	518	512	513	32	0	
9	0	0	0	0	0	515	511	512	31	0	
10	0	0	0	0	0	512	507	512	31	0	
11	0	0	0	0	0	507	509	511	31	0	
12	0	0	0	0	1	507	508	512	32	0	
13	0	0	0	0	0	504	509	511	31	0	
14	0	0	0	0	0	502	507	509	32	0	
15	0	0	0	0	0	502	508	509	32	0	
0	0	0	0	0	0	507	510	511	32	0	
1	0	0	0	0	0	510	511	510	31	0	
2	0	0	0	0	0	514	511	511	32	0	
3	0	0	0	0	0	518	511	510	31	0	
4	0	0	0	0	1	519	511	510	32	0	
5	0	0	0	0	0	519	509	511	32	0	
6	0	0	0	0	0	522	510	512	32	0	
7	0	0	0	0	0	524	509	510	31	0	
8	0	0	0	0	0	519	511	510	32	0	
9	0	0	0	0	0	516	510	512	32	0	
10	0	0	0	0	0	515	509	514	32	0	
11	0	0	0	0	0	512	510	513	32	0	
12	0	0	0	0	1	507	508	513	32	0	
13	0	0	0	0	0	507	508	513	31	0	
14	0	0	0	0	0	506	508	510	31	0	
15	0	0	0	0	0	505	508	511	32	0	
0	0	0	0	0	0	508	509	511	31	0	
1	0	0	0	0	0	508	512	511	32	0	
2	0	0	0	0	0	511	508	507	31	0	
3	0	0	0	0	0	512	513	511	32	0	
4	0	0	0	0	1	512	511	512	31	0	
5	0	0	0	0	0	521	509	515	32	0	
6	0	0	0	0	0	520	511	511	32	0	
7	0	0	0	0	0	519	509	511	32	0	
8	0	0	0	0	0	522	511	512	31	0	
9	0	0	0	0	0	518	508	513	32	0	
10	0	0	0	0	0	518	509	513	32	0	
11	0	0	0	0	0	518	510	511	32	0	
12	0	0	0	0	1	511	510	511	31	0	
13	0	0	0	0	0	510	507	510	32	0	
14	0	0	0	0	0	509	509	512	32	0	
15	0	0	0	0	0	509	511	510	32	0	
0	0	0	0	0	0	506	510	510	32	0	
1	0	0	0	0	0	506	511	513	32	0	
2	0	0	0	0	0	510	510	511	31	0	
3	0	0	0	0	0	511	509	509	32	0	
4	0	0	0	0	1	518	510	508	31	0	
5	0	0	0	0	0	519	511	511	32	0	
6	0	0	0	0	0	521	510	511	32	0	
7	0	0	0	0	0	521	513	511	32	0	
8	0	0	0	0	0	518	509	513	31	0	
9	0	0	0	0	0	517	510	511	32	0	
10	0	0	0	0	0	519	510	510	32	0	
11	0	0	0	0	0	514	510	510	31	0	
12	0	0	0	0	1	512	509	511	31	0	
13	0	0	0	0	0	508	510	508	31	0	
14	0	0	0	0	0	505	507	511	32	0	
15	0	0	0	0	0	505	507	512	32	0	
0	0	0	0	0	0	504	508	510	32	0	
1	0	0	0	0	0	503	508	508	32	0	
2	0	0	0	0	0	511	509	511	32	0	
3	0	0	0	0	0	509	509	512	31	0	
4	0	0	0	0	1	511	510	511	31	0	
5	0	0	0	0	0	514	508	511	31	0	
6	0	0	0	0	0	519	509	510	31	0	
7	0	0	0	0	0	519	511	510	31	0	
8	0	0	0	0	0	523	514	512	31	0	
9	0	0	0	0	0	521	510	514	31	0	
10	0	0	0	0	0	519	512	513	32	0	
11	0	0	0	0	0	516	511	511	32	0	
12	0	0	0	0	1	519	510	512	31	0	
13	0	0	0	0	0	513	510	512	32	0	
14	0	0	0	0	0	507	509	511	32	0	
15	0	0	0	0	0	504	509	512	32	0	
0	0	0	0	0	0	508	507	513	32	0	
1	0	0	0	0	0	506	508	511	31	0	
2	0	0	0	0	0	503	510	511	31	0	
3	0	0	0	0	0	508	511	512	32	0	
4	0	0	0	0	1	511	509	509	31	0	
5	0	0	0	0	0	519	508	509	32	0	
6	0	0	0	0	0	520	508	510	31	0	
7	0	0	0	0	0	523	509	511	32	0	
8	0	0	0	0	0	527	510	512	32	0	
9	0	0	0	0	0	520	509	514	32	0	
10	0	0	0	0	0	518	510	512	32	0	
11	0	0	0	0	0	518	512	514	31	0	
12	0	0	0	0	1	515	513	512	32	0	
13	0	0	0	0	0	513	512	510	32	0	
14	0	0	0	0	0	507	508	507	31	0	
15	0	0	0	0	0	507	509	512	31	0	
0	0	0	0	0	0	507	509	513	32	0	
1	0	0	0	0	0	503	511	512	32	0	
2	0	0	0	0	0	505	510	510	31	0	
3	0	0	0	0	0	500	508	512	31	0	
4	0	0	0	0	1	505	510	513	31	0	
5	0	0	0	0	0	514	507	511	32	0	
6	0	0	0	0	0	518	510	510	32	0	
7	0	0	0	0	0	516	511	512	31	0	
8	0	0	0	0	0	519	510	510	31	0	
9	0	0	0	0	0	524	510	510	31	0	
10	0	0	0	0	0	524	510	511	32	0	
11	0	0	0	0	0	523	508	510	31	0	
12	0	0	0	0	1	520	510	510	32	0	
13	0	0	0	0	0	514	510	513	31	0	
14	0	0	0	0	0	511	512	510	31	0	
15	0	0	0	0	0	509	510	511	32	0	
0	0	0	0	0	0	506	508	513	32	0	
1	0	0	0	0	0	505	510	511	31	0	
2	0	0	0	0	0	504	510	510	31	0	
3	0	0	0	0	0	504	511	508	32	0	
4	0	0	0	0	1	508	508	512	32	0	
5	0	0	0	0	0	512	509	513	32	0	
6	0	0	0	0	0	515	506	511	31	0	
7	0	0	0	0	0	513	511	510	32	0	
8	0	0	0	0	0	517	511	512	31	0	
9	0	0	0	0	0	521	511	513	32	0	
10	0	0	0	0	0	519	510	510	31	0	
11	0	0	0	0	0	522	510	509	31	0	
12	0	0	0	0	1	520	509	514	31	0	
13	0	0	0	0	0	515	510	513	32	0	
14	0	0	0	0	0	516	511	513	31	0	
15	0	0	0	0	0	516	509	513	32	0	
0	0	0	0	0	0	511	509	512	32	0	
1	0	0	0	0	0	508	510	509	32	0	
2	0	0	0	0	0	505	509	508	31	0	
3	0	0	0	0	0	507	511	509	31	0	
4	0	0	0	0	1	507	511	512	31	0	
5	0	0	0	0	0	509	510	511	32	0	
6	0	0	0	0	0	512	509	510	32	0	
7	0	0	0	0	0	512	508	511	32	0	
8	0	0	0	0	0	515	507	511	32	0	
9	0	0	0	0	0	518	510	512	32	0	
10	0	0	0	0	0	520	509	510	32	0	
11	0	0	0	0	0	519	508	512	31	0	
12	0	0	0	0	1	516	510	511	31	0	
13	0	0	0	0	0	516	511	511	31	0	
14	0	0	0	0	0	513	510	511	31	0	
15	0	0	0	0	0	513	512	510	32	0	
0	0	0	0	0	0	512	509	509	31	0	
1	0	0	0	0	0	506	508	510	32	0	
2	0	0	0	0	0	508	507	510	32	0	
3	0	0	0	0	0	508	509	511	32	0	
4	0	0	0	0	1	505	509	512	31	0	
5	0	0	0	0	0	507	509	509	31	0	
6	0	0	0	0	0	506	511	512	31	0	
7	0	0	0	0	0	510	511	512	32	0	
8	0	0	0	0	0	518	511	511	32	0	
9	0	0	0	0	0	521	509	509	31	0	
10	0	0	0	0	0	524	510	511	32	0	
11	0	0	0	0	0	520	508	511	32	0	
12	0	0	0	0	1	523	508	513	32	0	
13	0	0	0	0	0	518	510	514	32	0	
14	0	0	0	0	0	514	510	514	31	0	
15	0	0	0	0	0	513	510	515	31	0	
0	0	0	0	0	0	508	509	514	32	0	
1	0	0	0	0	0	509	508	510	31	0	
2	0	0	0	0	0	508	509	514	32	0	
3	0	0	0	0	0	505	509	510	32	0	
4	0	0	0	0	1	505	509	509	31	0	
5	0	0	0	0	0	505	510	510	31	0	
6	0	0	0	0	0	509	511	510	31	0	
7	0	0	0	0	0	511	510	510	31	0	
8	0	0	0	0	0	513	510	509	32	0	
9	0	0	0	0	0	519	509	511	31	0	
10	0	0	0	0	0	517	509	510	31	0	
11	0	0	0	0	0	517	506	510	31	0	
12	0	0	0	0	1	521	509	511	31	0	
13	0	0	0	0	0	520	509	509	32	0	
14	0	0	0	0	0	521	511	512	32	0	
15	0	0	0	0	0	519	509	510	32	0	
0	0	0	0	0	0	516	511	512	31	0	
1	0	0	0	0	0	517	512	512	32	0	
2	0	0	0	0	0	511	511	509	31	0	
3	0	0	0	0	0	508	510	510	31	0	
4	0	0	0	0	1	507	508	509	31	0	
5	0	0	0	0	0	504	510	510	32	0	
6	0	0	0	0	0	504	509	511	32	0	
7	0	0	0	0	0	507	509	510	32	0	
8	0	0	0	0	0	507	510	510	31	0	
9	0	0	0	0	0	514	512	508	31	0	
10	0	0	0	0	0	518	509	508	31	0	
11	0	0	0	0	0	519	509	512	31	0	
12	0	0	0	0	1	518	511	511	32	0	
13	0	0	0	0	0	519	510	514	32	0	
14	0	0	0	0	0	519	510	513	31	0	
15	0	0	0	0	0	519	510	509	31	0	
0	0	0	0	0	0	518	510	513	31	0	
1	0	0	0	0	0	513	510	511	32	0	
2	0	0	0	0	0	507	510	509	32	0	
3	0	0	0	0	0	504	511	511	31	0	
4	0	0	0	0	1	504	512	512	31	0	
5	0	0	0	0	0	503	510	512	32	0	
6	0	0	0	0	0	503	511	509	31	0	
7	0	0	0	0	0	507	511	508	31	0	
8	0	0	0	0	0	511	509	509	32	0	
9	0	0	0	0	0	512	506	511	32	0	
10	0	0	0	0	0	515	505	512	32	0	
11	0	0	0	0	0	519	507	512	31	0	
12	0	0	0	0	1	524	511	513	31	0	
13	0	0	0	0	0	523	509	510	32	0	
14	0	0	0	0	0	522	507	514	32	0	
15	0	0	0	0	0	518	510	512	31	0	
0	0	0	0	0	0	514	509	513	31	0	
1	0	0	0	0	0	519	511	515	32	0	
2	0	0	0	0	0	512	511	512	32	0	
3	0	0	0	0	0	511	511	513	32	0	
4	0	0	0	0	0	510	511	511	31	0	
5	0	0	0	0	0	505	510	511	31	0	
6	0	0	0	0	0	500	511	510	31	0	
7	0	0	0	0	0	504	513	508	31	0	
8	0	0	0	0	0	509	510	508	31	0	
9	0	0	0	0	0	510	510	507	32	0	
10	0	0	0	0	0	515	513	511	32	0	
11	0	0	0	0	0	519	510	512	32	0	
12	0	0	0	0	0	517	509	512	32	0	
13	0	0	0	0	0	519	508	511	31	0	
14	0	0	0	0	0	522	507	508	31	0	
15	0	0	0	0	0	519	510	511	31	0	
0	0	0	0	0	0	520	511	511	31	0	
1	0	0	0	0	0	515	509	510	31	0	
2	0	0	0	0	0	512	510	512	32	0	
3	0	0	0	0	0	510	510	512	32	0	
4	0	0	0	0	1	506	508	509	32	0	
5	0	0	0	0	0	508	508	510	32	0	
6	0	0	0	0	0	505	510	508	31	0	
7	0	0	0	0	0	506	509	509	32	0	
8	0	0	0	0	0	510	508	511	32	0	
9	0	0	0	0	0	509	507	512	31	0	
10	0	0	0	0	0	510	508	511	32	0	
11	0	0	0	0	0	515	511	512	32	0	
12	0	0	0	0	1	515	511	512	32	0	
13	0	0	0	0	0	518	511	512	32	0	
14	0	0	0	0	0	518	507	513	32	0	
15	0	0	0	0	0	524	509	514	32	0	
0	0	0	0	0	0	519	510	515	32	0	
1	0	0	0	0	0	520	510	512	32	0	
2	0	0	0	0	0	515	509	514	32	0	
3	0	0	0	0	0	510	508	511	32	0	
4	0	0	0	0	1	511	509	510	31	0	
5	0	0	0	0	0	509	511	508	31	0	
6	0	0	0	0	0	505	509	506	31	0	
7	0	0	0	0	0	498	512	509	31	0	
8	0	0	0	0	0	502	512	512	32	0	
9	0	0	0	0	0	503	514	512	31	0	
10	0	0	0	0	0	509	511	510	31	0	
11	0	0	0	0	0	513	512	509	32	0	
12	0	0	0	0	1	517	512	510	31	0	
13	0	0	0	0	0	522	511	512	32	0	
14	0	0	0	0	0	525	506	512	32	0	
15	0	0	0	0	0	519	508	515	32	0	
0	0	0	0	0	0	522	510	512	32	0	
1	0	0	0	0	0	521	511	511	31	0	
2	0	0	0	0	0	516	508	510	32	0	
3	0	0	0	0	0	516	511	511	31	0	
4	0	0	0	0	1	510	512	510	31	0	
5	0	0	0	0	0	508	512	510	31	0	
6	0	0	0	0	0	505	508	512	32	0	
7	0	0	0	0	0	507	509	510	32	0	
8	0	0	0	0	0	503	508	510	32	0	
9	0	0	0	0	0	500	508	512	31	0	
10	0	0	0	0	0	505	508	512	31	0	
11	0	0	0	0	0	512	511	512	31	0	
12	0	0	0	0	1	515	510	513	32	0	
13	0	0	0	0	0	515	508	512	32	0	
14	0	0	0	0	0	520	508	512	31	0	
15	0	0	0	0	0	524	509	512	32	0	
0	0	0	0	0	0	524	509	515	32	0	
1	0	0	0	0	0	523	506	511	32	0	
2	0	0	0	0	0	521	508	510	32	0	
3	0	0	0	0	0	515	509	512	32	0	
4	0	0	0	0	1	514	510	512	32	0	
5	0	0	0	0	0	513	510	513	32	0	
6	0	0	0	0	0	507	510	513	32	0	
7	0	0	0	0	0	505	510	510	31	0	
8	0	0	0	0	0	504	509	509	31	0	
9	0	0	0	0	0	507	511	508	32	0	
10	0	0	0	0	0	507	511	509	31	0	
11	0	0	0	0	0	508	511	507	31	0	
12	0	0	0	0	1	514	511	506	32	0	
13	0	0	0	0	0	514	511	508	31	0	
14	0	0	0	0	0	517	511	511	31	0	
15	0	0	0	0	0	519	513	513	32	0	
0	0	0	0	0	0	519	511	510	32	0	
1	0	0	0	0	0	520	508	512	32	0	
2	0	0	0	0	0	519	510	512	32	0	
3	0	0	0	0	0	519	511	511	31	0	
4	0	0	0	0	1	517	508	511	32	0	
5	0	0	0	0	0	513	508	513	32	0	
6	0	0	0	0	0	513	511	511	31	0	
7	0	0	0	0	0	510	508	510	31	0	
8	0	0	0	0	0	506	512	509	32	0	
9	0	0	0	0	0	504	508	511	31	0	
10	0	0	0	0	0	501	510	509	31	0	
11	0	0	0	0	0	508	513	510	31	0	
12	0	0	0	0	1	506	511	510	31	0	
13	0	0	0	0	0	505	511	509	31	0	
14	0	0	0	0	0	512	510	514	32	0	
15	0	0	0	0	0	515	511	515	32	0	
0	0	0	0	0	0	516	508	516	32	0	
1	0	0	0	0	0	520	509	513	32	0	
2	0	0	0	0	0	522	507	511	32	0	
3	0	0	0	0	0	520	507	513	32	0	
4	0	0	0	0	1	515	510	515	32	0	
5	0	0	0	0	0	513	510	513	32	0	
6	0	0	0	0	0	510	507	512	32	0	
7	0	0	0	0	0	505	508	512	32	0	
8	0	0	0	0	0	502	512	512	32	0	
9	0	0	0	0	0	503	511	511	32	0	
10	0	0	0	0	0	506	515	511	31	0	
11	0	0	0	0	0	508	509	511	32	0	
12	0	0	0	0	1	508	510	513	32	0	
13	0	0	0	0	0	512	508	513	32	0	
14	0	0	0	0	0	516	510	511	32	0	
15	0	0	0	0	0	522	510	507	32	0	
0	0	0	0	0	0	522	509	510	32	0	
1	0	0	0	0	0	521	510	510	31	0	
2	0	0	0	0	0	521	510	509	32	0	
3	0	0	0	0	0	519	511	509	31	0	
4	0	0	0	0	0	519	510	512	31	0	
5	0	0	0	0	0	521	508	512	32	0	
6	0	0	0	0	0	515	507	511	32	0	
7	0	0	0	0	0	507	508	506	31	0	
8	0	0	0	0	0	506	507	506	31	0	
9	0	0	0	0	0	508	508	504	31	0	
10	0	0	0	0	0	509	511	505	31	0	
11	0	0	0	0	0	508	509	507	32	0	
12	0	0	0	0	0	508	505	510	31	0	
13	0	0	0	0	0	508	504	509	31	0	
14	0	0	0	0	0	509	510	510	31	0	
15	0	0	0	0	0	514	512	510	31	0	
0	0	0	0	0	0	519	511	512	31	0	
1	0	0	0	0	0	519	511	513	31	0	
2	0	0	0	0	0	519	509	513	31	0	
3	0	0	0	0	0	518	510	512	32	0	
4	0	0	0	0	1	519	509	515	32	0	
5	0	0	0	0	0	516	513	513	32	0	
6	0	0	0	0	0	512	511	514	32	0	
7	0	0	0	0	0	508	509	514	32	0	
8	0	0	0	0	0	505	508	513	32	0	
9	0	0	0	0	0	506	508	510	32	0	
10	0	0	0	0	0	506	512	509	32	0	
11	0	0	0	0	0	505	512	511	32	0	
12	0	0	0	0	1	507	513	510	31	0	
13	0	0	0	0	0	507	511	508	32	0	
14	0	0	0	0	0	510	511	513	32	0	
15	0	0	0	0	0	512	509	513	31	0	
0	0	0	0	0	0	514	511	512	31	0	
1	0	0	0	0	0	519	512	512	31	0	
2	0	0	0	0	0	519	511	512	31	0	
3	0	0	0	0	0	525	509	512	32	0	
4	0	0	0	0	1	520	508	513	32	0	
5	0	0	0	0	0	521	507	514	32	0	
6	0	0	0	0	0	515	509	512	32	0	
7	0	0	0	0	0	513	508	510	32	0	
8	0	0	0	0	0	512	509	509	31	0	
9	0	0	0	0	0	508	511	509	31	0	
10	0	0	0	0	0	507	512	512	32	0	
11	0	0	0	0	0	507	510	511	32	0	
12	0	0	0	0	1	504	509	508	31	0	
13	0	0	0	0	0	501	508	508	31	0	
14	0	0	0	0	0	504	511	510	32	0	
15	0	0	0	0	0	509	508	511	32	0	
0	0	0	0	0	0	515	510	508	31	0	
1	0	0	0	0	0	515	513	512	31	0	
2	0	0	0	0	0	519	513	512	32	0	
3	0	0	0	0	0	519	510	511	32	0	
4	0	0	0	0	1	519	508	513	31	0	
5	0	0	0	0	0	523	512	514	32	0	
6	0	0	0	0	0	517	507	511	31	0	
7	0	0	0	0	0	519	505	513	32	0	
8	0	0	0	0	0	517	510	511	31	0	
9	0	0	0	0	0	514	510	508	32	0	
10	0	0	0	0	0	508	512	509	32	0	
11	0	0	0	0	0	510	509	509	32	0	
12	0	0	0	0	1	508	508	510	31	0	
13	0	0	0	0	0	509	511	510	31	0	
14	0	0	0	0	0	508	510	509	31	0	
15	0	0	0	0	0	509	510	511	31	0	
0	0	0	0	0	0	508	508	512	31	0	
1	0	0	0	0	0	512	510	511	32	0	
2	0	0	0	0	0	518	508	511	32	0	
3	0	0	0	0	0	521	510	511	32	0	
4	0	0	0	0	1	520	509	513	32	0	
5	0	0	0	0	0	519	508	513	32	0	
6	0	0	0	0	0	519	509	511	31	0	
7	0	0	0	0	0	515	507	510	32	0	
8	0	0	0	0	0	511	508	511	32	0	
9	0	0	0	0	0	511	509	510	32	0	
10	0	0	0	0	0	510	510	512	32	0	
11	0	0	0	0	0	505	511	513	31	0	
12	0	0	0	0	1	502	511	513	31	0	
13	0	0	0	0	0	502	509	513	32	0	
14	0	0	0	0	0	501	510	511	31	0	
15	0	0	0	0	0	507	509	511	31	0	
0	0	0	0	0	0	511	511	514	31	0	
1	0	0	0	0	0	510	509	509	31	0	
2	0	0	0	0	0	513	511	511	31	0	
3	0	0	0	0	0	519	514	511	31	0	
4	0	0	0	0	1	522	512	510	31	0	
5	0	0	0	0	0	528	508	512	32	0	
6	0	0	0	0	0	524	506	508	31	0	
7	0	0	0	0	0	523	509	508	31	0	
8	0	0	0	0	0	519	510	509	31	0	
9	0	0	0	0	0	516	512	509	31	0	
10	0	0	0	0	0	513	511	509	32	0	
11	0	0	0	0	0	512	511	510	32	0	
12	0	0	0	0	1	505	508	513	32	0	
13	0	0	0	0	0	501	508	513	32	0	
14	0	0	0	0	0	500	509	516	32	0	
15	0	0	0	0	0	504	510	513	32	0	
0	0	0	0	0	0	508	509	515	31	0	
1	0	0	0	0	0	511	508	513	32	0	
2	0	0	0	0	0	518	511	511	32	0	
3	0	0	0	0	0	518	510	508	31	0	
4	0	0	0	0	1	519	510	510	32	0	
5	0	0	0	0	0	522	509	513	32	0	
6	0	0	0	0	0	520	509	513	32	0	
7	0	0	0	0	0	520	508	514	31	0	
8	0	0	0	0	0	519	509	511	32	0	
9	0	0	0	0	0	518	509	510	32	0	
10	0	0	0	0	0	519	509	508	31	0	
11	0	0	0	0	0	512	509	509	31	0	
12	0	0	0	0	0	508	510	510	32	0	
13	0	0	0	0	0	504	510	510	32	0	
14	0	0	0	0	0	505	509	510	32	0	
15	0	0	0	0	0	506	510	511	32	0	
0	0	0	0	0	0	508	509	510	31	0	
1	0	0	0	0	0	513	510	511	32	0	
2	0	0	0	0	0	511	510	512	31	0	
3	0	0	0	0	0	517	510	509	31	0	
4	0	0	0	0	0	519	512	509	31	0	
5	0	0	0	0	0	519	513	508	31	0	
6	0	0	0	0	0	519	511	511	31	0	
7	0	0	0	0	0	518	511	511	32	0	
8	0	0	0	0	0	519	510	514	32	0	
9	0	0	0	0	0	519	506	515	32	0	
10	0	0	0	0	0	515	507	516	32	0	
11	0	0	0	0	0	509	508	513	32	0	
12	0	0	0	0	0	507	511	511	32	0	
13	0	0	0	0	0	507	511	512	32	0	
14	0	0	0	0	0	505	510	509	32	0	
15	0	0	0	0	0	506	510	510	32	0	
0	0	0	0	0	0	507	510	507	31	0	
1	0	0	0	0	0	507	511	510	31	0	
2	0	0	0	0	0	510	509	510	32	0	
3	0	0	0	0	0	513	510	508	31	0	
4	0	0	0	0	1	514	512	508	31	0	
5	0	0	0	0	0	518	509	507	31	0	
6	0	0	0	0	0	521	508	510	32	0	
7	0	0	0	0	0	524	511	511	32	0	
8	0	0	0	0	0	524	510	516	32	0	
9	0	0	0	0	0	519	508	516	32	0	
10	0	0	0	0	0	517	507	515	32	0	
11	0	0	0	0	0	512	511	512	31	0	
12	0	0	0	0	1	513	512	508	31	0	
13	0	0	0	0	0	506	509	512	32	0	
14	0	0	0	0	0	502	508	509	31	0	
15	0	0	0	0	0	502	509	510	31	0	
0	0	0	0	0	0	503	511	515	32	0	
1	0	0	0	0	0	505	507	516	32	0	
2	0	0	0	0	0	510	510	516	32	0	
3	0	0	0	0	0	513	511	513	32	0	
4	0	0	0	0	1	515	512	510	31	0	
5	0	0	0	0	0	519	511	506	31	0	
6	0	0	0	0	0	521	511	510	31	0	
7	0	0	0	0	0	519	510	510	31	0	
8	0	0	0	0	0	520	509	512	32	0	
9	0	0	0	0	0	519	508	510	32	0	
10	0	0	0	0	0	515	509	508	31	0	
11	0	0	0	0	0	519	509	508	31	0	
12	0	0	0	0	1	519	511	503	31	0	
13	0	0	0	0	0	515	510	504	31	0	
14	0	0	0	0	0	510	509	510	31	0	
15	0	0	0	0	0	507	508	513	32	0	
0	0	0	0	0	0	503	510	516	32	0	
1	0	0	0	0	0	507	510	519	32	0	
2	0	0	0	0	0	508	512	516	32	0	
3	0	0	0	0	0	511	508	511	32	0	
4	0	0	0	0	1	510	509	508	31	0	
5	0	0	0	0	0	518	511	511	31	0	
6	0	0	0	0	0	523	512	514	31	0	
7	0	0	0	0	0	520	507	516	32	0	
8	0	0	0	0	0	521	506	513	32	0	
9	0	0	0	0	0	523	510	512	32	0	
10	0	0	0	0	0	519	507	511	32	0	
11	0	0	0	0	0	519	508	513	32	0	
12	0	0	0	0	1	515	508	512	32	0	
13	0	0	0	0	0	512	509	512	32	0	
14	0	0	0	0	0	507	509	510	31	0	
15	0	0	0	0	0	508	510	511	31	0	
0	0	0	0	0	0	510	511	511	31	0	
1	0	0	0	0	0	508	511	508	31	0	
2	0	0	0	0	0	511	508	507	31	0	
3	0	0	0	0	0	509	509	511	32	0	
4	0	0	0	0	1	509	508	511	32	0	
5	0	0	0	0	0	509	506	514	32	0	
6	0	0	0	0	0	515	508	512	31	0	
7	0	0	0	0	0	520	513	508	31	0	
8	0	0	0	0	0	524	515	509	31	0	
9	0	0	0	0	0	524	512	509	31	0	
10	0	0	0	0	0	518	510	511	32	0	
11	0	0	0	0	0	518	511	511	31	0	
12	0	0	0	0	1	515	510	511	31	0	
13	0	0	0	0	0	515	510	514	32	0	
14	0	0	0	0	0	512	509	513	31	0	
15	0	0	0	0	0	511	511	511	31	0	
0	0	0	0	0	0	508	511	510	32	0	
1	0	0	0	0	0	505	510	513	32	0	
2	0	0	0	0	0	501	509	512	32	0	
3	0	0	0	0	0	504	508	509	32	0	
4	0	0	0	0	1	509	510	508	31	0	
5	0	0	0	0	0	508	510	510	31	0	
6	0	0	0	0	0	509	508	508	31	0	
7	0	0	0	0	0	515	509	510	31	0	
8	0	0	0	0	0	518	510	511	32	0	
9	0	0	0	0	0	520	509	511	32	0	
10	0	0	0	0	0	522	511	511	32	0	
11	0	0	0	0	0	522	511	511	32	0	
12	0	0	0	0	1	519	509	511	31	0	
13	0	0	0	0	0	516	511	512	32	0	
14	0	0	0	0	0	515	510	510	32	0	
15	0	0	0	0	0	512	510	508	32	0	
0	0	0	0	0	0	508	508	508	31	0	
1	0	0	0	0	0	502	508	510	31	0	
2	0	0	0	0	0	503	509	509	31	0	
3	0	0	0	0	0	500	508	508	31	0	
4	0	0	0	0	1	502	507	509	31	0	
5	0	0	0	0	0	506	509	510	32	0	
6	0	0	0	0	0	509	510	513	32	0	
7	0	0	0	0	0	513	509	515	32	0	
8	0	0	0	0	0	517	508	514	32	0	
9	0	0	0	0	0	519	510	514	32	0	
10	0	0	0	0	0	521	510	516	32	0	
11	0	0	0	0	0	521	510	513	31	0	
12	0	0	0	0	1	519	510	511	32	0	
13	0	0	0	0	0	518	509	508	31	0	
14	0	0	0	0	0	514	510	508	31	0	
15	0	0	0	0	0	510	508	511	32	0	
0	0	0	0	0	0	509	509	514	32	0	
1	0	0	0	0	0	510	509	513	32	0	
2	0	0	0	0	0	509	509	510	32	0	
3	0	0	0	0	0	508	508	509	31	0	
4	0	0	0	0	1	504	510	508	32	0	
5	0	0	0	0	0	511	511	511	32	0	
6	0	0	0	0	0	515	512	509	31	0	
7	0	0	0	0	0	514	512	508	31	0	
8	0	0	0	0	0	516	513	508	31	0	
9	0	0	0	0	0	518	513	508	32	0	
10	0	0	0	0	0	520	510	512	32	0	
11	0	0	0	0	0	518	509	510	31	0	
12	0	0	0	0	1	519	510	512	31	0	
13	0	0	0	0	0	518	508	513	32	0	
14	0	0	0	0	0	519	509	514	31	0	
15	0	0	0	0	0	513	508	511	32	0	
0	0	0	0	0	0	512	508	514	32	0	
1	0	0	0	0	0	507	508	513	32	0	
2	0	0	0	0	0	505	509	512	31	0	
3	0	0	0	0	0	505	510	509	31	0	
4	0	0	0	0	1	507	509	510	32	0	
5	0	0	0	0	0	512	510	514	32	0	
6	0	0	0	0	0	506	508	513	32	0	
7	0	0	0	0	0	512	509	511	31	0	
8	0	0	0	0	0	513	508	509	32	0	
9	0	0	0	0	0	521	510	511	32	0	
10	0	0	0	0	0	519	511	507	31	0	
11	0	0	0	0	0	522	513	508	31	0	
12	0	0	0	0	1	521	510	511	31	0	
13	0	0	0	0	0	520	511	511	31	0	
14	0	0	0	0	0	519	510	512	32	0	
15	0	0	0	0	0	514	508	513	32	0	
0	0	0	0	0	0	509	509	513	32	0	
1	0	0	0	0	0	513	510	512	32	0	
2	0	0	0	0	0	507	510	513	31	0	
3	0	0	0	0	0	508	512	511	31	0	
4	0	0	0	0	1	502	509	510	31	0	
5	0	0	0	0	0	505	509	512	32	0	
6	0	0	0	0	0	508	509	508	32	0	
7	0	0	0	0	0	512	509	507	31	0	
8	0	0	0	0	0	511	509	508	32	0	
9	0	0	0	0	0	515	509	511	32	0	
10	0	0	0	0	0	519	511	509	32	0	
11	0	0	0	0	0	523	510	509	31	0	
12	0	0	0	0	1	520	510	511	31	0	
13	0	0	0	0	0	520	512	512	31	0	
14	0	0	0	0	0	520	509	511	31	0	
15	0	0	0	0	0	515	508	510	31	0	
0	0	0	0	0	0	513	508	512	31	0	
1	0	0	0	0	0	513	508	513	32	0	
2	0	0	0	0	0	505	509	512	31	0	
3	0	0	0	0	0	505	511	514	32	0	
4	0	0	0	0	1	505	510	512	32	0	
5	0	0	0	0	0	507	510	509	31	0	
6	0	0	0	0	0	504	510	507	31	0	
7	0	0	0	0	0	507	509	510	32	0	
8	0	0	0	0	0	507	508	513	32	0	
9	0	0	0	0	0	509	508	511	32	0	
10	0	0	0	0	0	516	509	512	32	0	
11	0	0	0	0	0	518	508	516	32	0	
12	0	0	0	0	1	521	510	515	32	0	
13	0	0	0	0	0	522	511	510	31	0	
14	0	0	0	0	0	521	511	508	31	0	
15	0	0	0	0	0	520	508	509	31	0	
0	0	0	0	0	0	513	511	514	31	0	
1	0	0	0	0	0	513	510	515	32	0	
2	0	0	0	0	0	508	508	510	31	0	
3	0	0	0	0	0	507	510	513	32	0	
4	0	0	0	0	1	504	511	508	31	0	
5	0	0	0	0	0	505	511	509	31	0	
6	0	0	0	0	0	503	512	511	32	0	
7	0	0	0	0	0	504	511	510	31	0	
8	0	0	0	0	0	507	510	509	31	0	
9	0	0	0	0	0	511	508	508	31	0	
10	0	0	0	0	0	515	510	507	31	0	
11	0	0	0	0	0	521	510	506	32	0	
12	0	0	0	0	1	522	509	507	31	0	
13	0	0	0	0	0	524	511	511	31	0	
14	0	0	0	0	0	526	511	513	32	0	
15	0	0	0	0	0	521	509	514	32	0	
0	0	0	0	0	0	517	509	513	32	0	
1	0	0	0	0	0	515	509	515	32	0	
2	0	0	0	0	0	515	507	513	32	0	
3	0	0	0	0	0	513	509	513	32	0	
4	0	0	0	0	1	508	510	511	31	0	
5	0	0	0	0	0	504	509	509	31	0	
6	0	0	0	0	0	499	509	514	32	0	
7	0	0	0	0	0	504	509	513	32	0	
8	0	0	0	0	0	502	510	512	32	0	
9	0	0	0	0	0	505	508	511	32	0	
10	0	0	0	0	0	510	509	511	32	0	
11	0	0	0	0	0	517	507	509	32	0	
12	0	0	0	0	1	522	511	510	32	0	
13	0	0	0	0	0	525	511	511	32	0	
14	0	0	0	0	0	524	510	510	32	0	
15	0	0	0	0	0	521	511	509	31	0	
0	0	0	0	0	0	521	510	508	31	0	
1	0	0	0	0	0	517	512	510	31	0	
2	0	0	0	0	0	518	511	512	31	0	
3	0	0	0	0	0	510	510	512	31	0	
4	0	0	0	0	0	506	508	515	31	0	
5	0	0	0	0	0	505	510	514	32	0	
6	0	0	0	0	0	503	511	510	32	0	
7	0	0	0	0	0	505	508	511	31	0	
8	0	0	0	0	0	506	508	513	32	0	
9	0	0	0	0	0	506	508	512	32	0	
10	0	0	0	0	0	508	508	510	31	0	
11	0	0	0	0	0	513	510	507	31	0	
12	0	0	0	0	0	516	510	505	31	0	
13	0	0	0	0	0	515	512	511	31	0	
14	0	0	0	0	0	521	511	512	32	0	
15	0	0	0	0	0	521	508	510	31	0	
0	0	0	0	0	0	523	513	510	32	0	
1	0	0	0	0	0	522	512	512	32	0	
2	0	0	0	0	0	517	506	512	32	0	
3	0	0	0	0	0	514	505	512	32	0	
4	0	0	0	0	0	515	508	510	31	0	
5	0	0	0	0	0	510	512	510	31	0	
6	0	0	0	0	0	508	512	509	31	0	
7	0	0	0	0	0	503	510	508	31	0	
8	0	0	0	0	0	500	512	511	31	0	
9	0	0	0	0	0	504	504	514	32	0	
10	0	0	0	0	0	508	504	516	32	0	
11	0	0	0	0	0	513	505	513	32	0	
12	0	0	0	0	1	515	509	511	32	0	
13	0	0	0	0	0	520	511	514	32	0	
14	0	0	0	0	0	521	510	514	32	0	
15	0	0	0	0	0	522	510	511	31	0	
0	0	0	0	0	0	521	509	508	31	0	
1	0	0	0	0	0	522	513	513	31	0	
2	0	0	0	0	0	520	510	512	31	0	
3	0	0	0	0	0	515	509	507	31	0	
4	0	0	0	0	1	516	512	510	31	0	
5	0	0	0	0	0	518	511	511	32	0	
6	0	0	0	0	0	506	508	508	31	0	
7	0	0	0	0	0	507	508	508	32	0	
8	0	0	0	0	0	505	510	508	31	0	
9	0	0	0	0	0	509	511	509	32	0	
10	0	0	0	0	0	509	511	511	32	0	
11	0	0	0	0	0	508	511	514	32	0	
12	0	0	0	0	1	511	507	512	31	0	
13	0	0	0	0	0	512	510	510	31	0	
14	0	0	0	0	0	516	512	511	31	0	
15	0	0	0	0	0	520	511	519	32	0	
0	0	0	0	0	0	519	508	516	32	0	
1	0	0	0	0	0	520	508	514	32	0	
2	0	0	0	0	0	521	508	516	32	0	
3	0	0	0	0	0	519	508	514	31	0	
4	0	0	0	0	1	515	511	514	32	0	
5	0	0	0	0	0	511	510	512	31	0	
6	0	0	0	0	0	510	512	511	31	0	
7	0	0	0	0	0	510	510	506	31	0	
8	0	0	0	0	0	507	510	505	32	0	
9	0	0	0	0	0	504	505	509	32	0	
