# OpenSignals Text File Format. Version 1
# {"98:D3:71:FE:38:C0": {"position": 0, "device": "bitalino_rev", "device name": "98:D3:71:FE:38:C0", "device connection": "BTH98:D3:71:FE:38:C0", "sampling rate": 1000, "resolution": [4, 1, 1, 1, 1, 10, 10, 10, 10, 6, 6], "firmware version": 1282, "comments": "", "keywords": "", "mode": 0, "sync interval": 2, "date": "2026-6-5", "time": "12:17:58.840", "channels": [1, 2, 3, 4, 5, 6], "sensor": ["RAW", "RAW", "RAW", "RAW", "RAW", "RAW"], "label": ["A1", "A2", "A3", "A4", "A5", "A6"], "column": ["nSeq", "I1", "I2", "O1", "O2", "A1", "A2", "A3", "A4", "A5", "A6"], "special": [{}, {}, {}, {}, {}, {}], "digital IO": [0, 0, 1, 1]}}
# EndOfHeader
0	0	0	0	0	0	504	513	510	31	0	
1	0	0	0	0	0	506	514	510	31	0	
2	0	0	0	0	0	507	513	508	31	0	
3	0	0	0	0	1	510	513	508	31	0	
4	0	0	0	0	4	505	511	509	31	0	
5	0	0	0	0	0	505	511	511	31	0	
6	0	0	0	0	0	504	512	509	31	0	
7	0	0	0	0	0	504	510	508	31	0	
8	0	0	0	0	0	507	513	509	31	0	
9	0	0	0	0	0	504	515	511	31	0	
10	0	0	0	0	0	505	513	510	31	0	
11	0	0	0	0	0	506	514	509	31	0	
12	0	0	0	0	4	505	512	509	31	0	
13	0	0	0	0	0	506	514	508	31	0	
14	0	0	0	0	0	505	513	508	31	0	
15	0	0	0	0	0	507	513	507	31	0	
0	0	0	0	0	0	505	511	507	31	0	
1	0	0	0	0	0	504	512	510	31	0	
2	0	0	0	0	0	505	512	511	31	0	
3	0	0	0	0	0	506	511	513	31	0	
4	0	0	0	0	4	505	511	506	31	0	
5	0	0	0	0	0	507	512	508	31	0	
6	0	0	0	0	0	504	511	508	31	0	
7	0	0	0	0	0	504	511	510	31	0	
8	0	0	0	0	0	503	512	511	31	0	
9	0	0	0	0	0	503	513	508	31	0	
10	0	0	0	0	0	505	511	508	31	0	
11	0	0	0	0	0	505	510	509	31	0	
12	0	0	0	0	4	506	509	508	31	0	
13	0	0	0	0	0	507	509	509	31	0	
14	0	0	0	0	0	509	511	510	31	0	
15	0	0	0	0	0	507	511	510	32	0	
0	0	0	0	0	0	506	513	510	31	0	
1	0	0	0	0	0	504	513	509	31	0	
2	0	0	0	0	0	504	513	508	31	0	
3	0	0	0	0	0	502	511	511	31	0	
4	0	0	0	0	4	503	512	511	31	0	
5	0	0	0	0	0	503	513	512	31	0	
6	0	0	0	0	0	502	513	511	31	0	
7	0	0	0	0	0	504	513	511	31	0	
8	0	0	0	0	0	506	512	510	31	0	
9	0	0	0	0	0	505	513	509	31	0	
10	0	0	0	0	0	504	514	508	31	0	
11	0	0	0	0	1	507	513	508	31	0	
12	0	0	0	0	4	508	513	506	31	0	
13	0	0	0	0	0	510	511	507	31	0	
14	0	0	0	0	0	508	511	509	31	0	
15	0	0	0	0	0	508	513	507	31	0	
0	0	0	0	0	0	505	512	508	31	0	
1	0	0	0	0	0	508	513	508	31	0	
2	0	0	0	0	0	506	510	511	31	0	
3	0	0	0	0	1	505	511	514	31	0	
4	0	0	0	0	4	505	510	511	31	0	
5	0	0	0	0	0	506	510	511	31	0	
6	0	0	0	0	0	505	510	510	31	0	
7	0	0	0	0	0	505	510	507	32	0	
8	0	0	0	0	0	505	509	507	32	0	
9	0	0	0	0	0	505	511	507	31	0	
10	0	0	0	0	0	504	511	505	31	0	
11	0	0	0	0	1	503	514	510	31	0	
12	0	0	0	0	4	502	514	510	31	0	
13	0	0	0	0	0	502	513	510	31	0	
14	0	0	0	0	0	503	512	511	31	0	
15	0	0	0	0	0	504	512	508	31	0	
0	0	0	0	0	0	507	511	509	31	0	
1	0	0	0	0	0	504	512	511	31	0	
2	0	0	0	0	0	505	512	511	32	0	
3	0	0	0	0	0	507	513	511	31	0	
4	0	0	0	0	2	507	514	510	31	0	
5	0	0	0	0	0	506	514	509	31	0	
6	0	0	0	0	0	506	515	508	31	0	
7	0	0	0	0	0	507	515	509	31	0	
8	0	0	0	0	0	508	512	510	31	0	
9	0	0	0	0	0	508	512	508	31	0	
10	0	0	0	0	0	505	512	505	31	0	
11	0	0	0	0	0	505	510	508	31	0	
12	0	0	0	0	2	506	509	507	31	0	
13	0	0	0	0	0	504	512	508	31	0	
14	0	0	0	0	0	503	510	509	31	0	
15	0	0	0	0	0	504	510	508	31	0	
0	0	0	0	0	0	506	512	508	32	0	
1	0	0	0	0	0	505	510	510	32	0	
2	0	0	0	0	0	508	510	507	31	0	
3	0	0	0	0	0	508	513	508	31	0	
4	0	0	0	0	4	506	515	512	31	0	
5	0	0	0	0	0	504	513	511	31	0	
6	0	0	0	0	0	504	512	511	31	0	
7	0	0	0	0	0	504	510	510	31	0	
8	0	0	0	0	0	503	511	508	31	0	
9	0	0	0	0	0	502	513	509	31	0	
10	0	0	0	0	0	504	511	509	31	0	
11	0	0	0	0	1	504	513	511	31	0	
12	0	0	0	0	4	504	514	511	31	0	
13	0	0	0	0	0	504	515	512	31	0	
14	0	0	0	0	0	504	512	507	31	0	
15	0	0	0	0	0	505	515	507	31	0	
0	0	0	0	0	0	505	513	509	31	0	
1	0	0	0	0	0	504	511	511	31	0	
2	0	0	0	0	0	505	512	508	31	0	
3	0	0	0	0	1	505	512	508	31	0	
4	0	0	0	0	4	505	511	506	31	0	
5	0	0	0	0	0	507	512	507	31	0	
6	0	0	0	0	0	507	513	510	31	0	
7	0	0	0	0	0	507	512	512	31	0	
8	0	0	0	0	0	508	513	511	32	0	
9	0	0	0	0	0	505	510	511	31	0	
10	0	0	0	0	0	503	511	509	31	0	
11	0	0	0	0	1	504	512	508	31	0	
12	0	0	0	0	4	505	511	507	31	0	
13	0	0	0	0	0	508	509	508	31	0	
14	0	0	0	0	0	508	512	510	31	0	
15	0	0	0	0	0	507	512	508	31	0	
0	0	0	0	0	0	505	513	510	32	0	
1	0	0	0	0	0	504	510	510	32	0	
2	0	0	0	0	0	506	512	512	32	0	
3	0	0	0	0	0	505	511	511	31	0	
4	0	0	0	0	4	505	513	508	31	0	
5	0	0	0	0	0	507	513	507	31	0	
6	0	0	0	0	0	507	515	502	31	0	
7	0	0	0	0	0	506	513	503	31	0	
8	0	0	0	0	0	504	513	505	31	0	
9	0	0	0	0	0	503	514	506	31	0	
10	0	0	0	0	0	502	511	511	31	0	
11	0	0	0	0	0	503	512	512	31	0	
12	0	0	0	0	4	504	510	511	31	0	
13	0	0	0	0	0	502	511	513	32	0	
14	0	0	0	0	0	500	511	515	32	0	
15	0	0	0	0	0	502	515	513	32	0	
0	0	0	0	0	0	505	511	511	32	0	
1	0	0	0	0	0	506	512	506	31	0	
2	0	0	0	0	0	506	510	508	31	0	
3	0	0	0	0	0	508	512	507	31	0	
4	0	0	0	0	4	505	512	504	31	0	
5	0	0	0	0	0	505	513	506	31	0	
6	0	0	0	0	0	507	512	509	31	0	
7	0	0	0	0	0	507	510	510	31	0	
8	0	0	0	0	0	507	513	510	31	0	
9	0	0	0	0	0	507	512	511	31	0	
10	0	0	0	0	0	505	513	508	32	0	
11	0	0	0	0	0	503	512	511	31	0	
12	0	0	0	0	4	504	510	511	31	0	
13	0	0	0	0	0	502	511	511	31	0	
14	0	0	0	0	0	503	511	510	31	0	
15	0	0	0	0	0	506	512	508	31	0	
0	0	0	0	0	0	505	511	510	31	0	
1	0	0	0	0	0	505	511	509	31	0	
2	0	0	0	0	0	506	513	510	31	0	
3	0	0	0	0	1	504	515	508	31	0	
4	0	0	0	0	4	506	512	510	31	0	
5	0	0	0	0	0	506	510	508	31	0	
6	0	0	0	0	0	504	510	509	31	0	
7	0	0	0	0	0	505	510	510	31	0	
8	0	0	0	0	0	506	511	511	32	0	
9	0	0	0	0	0	503	510	509	31	0	
10	0	0	0	0	0	505	514	509	31	0	
11	0	0	0	0	1	506	512	510	31	0	
12	0	0	0	0	4	504	515	510	31	0	
13	0	0	0	0	0	504	516	510	31	0	
14	0	0	0	0	0	505	511	511	31	0	
15	0	0	0	0	0	505	510	508	31	0	
0	0	0	0	0	0	505	511	507	31	0	
1	0	0	0	0	0	504	511	507	31	0	
2	0	0	0	0	0	503	511	510	31	0	
3	0	0	0	0	0	503	510	510	31	0	
4	0	0	0	0	4	505	508	508	31	0	
5	0	0	0	0	0	506	511	508	31	0	
6	0	0	0	0	0	508	513	508	31	0	
7	0	0	0	0	0	506	515	510	31	0	
8	0	0	0	0	0	508	515	512	31	0	
9	0	0	0	0	0	508	515	511	31	0	
10	0	0	0	0	0	507	515	508	31	0	
11	0	0	0	0	0	505	515	509	31	0	
12	0	0	0	0	1	504	513	510	31	0	
13	0	0	0	0	0	506	512	510	31	0	
14	0	0	0	0	0	505	512	511	31	0	
15	0	0	0	0	0	505	509	510	31	0	
0	0	0	0	0	0	504	509	508	31	0	
1	0	0	0	0	0	505	512	507	31	0	
2	0	0	0	0	0	506	510	505	31	0	
3	0	0	0	0	0	506	509	508	31	0	
4	0	0	0	0	1	504	510	508	31	0	
5	0	0	0	0	0	505	511	508	31	0	
6	0	0	0	0	0	504	511	508	31	0	
7	0	0	0	0	0	503	512	508	31	0	
8	0	0	0	0	0	505	514	508	31	0	
9	0	0	0	0	0	505	513	508	31	0	
10	0	0	0	0	0	503	513	510	31	0	
11	0	0	0	0	0	504	513	511	31	0	
12	0	0	0	0	1	504	514	509	31	0	
13	0	0	0	0	0	504	513	509	31	0	
14	0	0	0	0	0	504	513	510	31	0	
15	0	0	0	0	0	506	511	509	31	0	
0	0	0	0	0	0	505	511	508	31	0	
1	0	0	0	0	0	506	511	509	31	0	
2	0	0	0	0	0	507	511	510	31	0	
3	0	0	0	0	1	507	511	510	31	0	
4	0	0	0	0	4	506	511	510	31	0	
5	0	0	0	0	0	504	510	511	31	0	
6	0	0	0	0	0	505	512	508	31	0	
7	0	0	0	0	0	504	511	507	31	0	
8	0	0	0	0	0	506	511	510	31	0	
9	0	0	0	0	0	504	511	509	31	0	
10	0	0	0	0	0	503	512	508	31	0	
11	0	0	0	0	1	504	511	508	32	0	
12	0	0	0	0	4	504	512	509	31	0	
13	0	0	0	0	0	504	512	510	32	0	
14	0	0	0	0	0	505	514	510	31	0	
15	0	0	0	0	0	505	512	508	31	0	
0	0	0	0	0	0	504	513	509	31	0	
1	0	0	0	0	0	505	512	507	31	0	
2	0	0	0	0	0	504	511	507	31	0	
3	0	0	0	0	0	505	510	508	31	0	
4	0	0	0	0	4	504	510	507	31	0	
5	0	0	0	0	0	505	511	508	31	0	
6	0	0	0	0	0	504	513	510	31	0	
7	0	0	0	0	0	505	513	510	31	0	
8	0	0	0	0	0	505	515	510	31	0	
9	0	0	0	0	0	508	513	511	31	0	
10	0	0	0	0	0	507	511	512	31	0	
11	0	0	0	0	1	508	514	511	31	0	
12	0	0	0	0	4	508	513	508	31	0	
13	0	0	0	0	0	504	514	508	31	0	
14	0	0	0	0	0	503	513	510	31	0	
15	0	0	0	0	0	503	512	510	31	0	
0	0	0	0	0	0	504	509	511	32	0	
1	0	0	0	0	0	504	510	510	31	0	
2	0	0	0	0	0	503	510	511	31	0	
3	0	0	0	0	1	505	511	509	31	0	
4	0	0	0	0	4	505	513	507	31	0	
5	0	0	0	0	0	505	512	509	31	0	
6	0	0	0	0	0	502	513	510	31	0	
7	0	0	0	0	0	505	509	511	31	0	
8	0	0	0	0	0	504	510	511	32	0	
9	0	0	0	0	0	505	512	509	31	0	
10	0	0	0	0	0	505	512	509	31	0	
11	0	0	0	0	1	507	512	508	31	0	
12	0	0	0	0	4	507	512	508	31	0	
13	0	0	0	0	0	509	512	511	31	0	
14	0	0	0	0	0	508	510	508	31	0	
15	0	0	0	0	0	506	511	507	31	0	
0	0	0	0	0	0	504	511	505	31	0	
1	0	0	0	0	0	505	510	506	32	0	
2	0	0	0	0	0	505	511	506	31	0	
3	0	0	0	0	0	504	513	507	31	0	
4	0	0	0	0	4	505	513	508	31	0	
5	0	0	0	0	0	506	514	510	31	0	
6	0	0	0	0	0	505	513	513	31	0	
7	0	0	0	0	0	505	513	510	31	0	
8	0	0	0	0	0	505	513	512	31	0	
9	0	0	0	0	0	504	514	510	31	0	
10	0	0	0	0	0	505	513	510	31	0	
11	0	0	0	0	1	504	512	510	31	0	
12	0	0	0	0	4	505	512	511	31	0	
13	0	0	0	0	0	504	514	507	31	0	
14	0	0	0	0	0	508	512	508	31	0	
15	0	0	0	0	0	508	512	509	31	0	
0	0	0	0	0	0	506	512	507	31	0	
1	0	0	0	0	0	507	511	511	31	0	
2	0	0	0	0	0	506	511	510	31	0	
3	0	0	0	0	1	505	510	509	31	0	
4	0	0	0	0	4	507	512	511	31	0	
5	0	0	0	0	0	503	511	510	31	0	
6	0	0	0	0	0	504	512	507	31	0	
7	0	0	0	0	0	505	513	507	31	0	
8	0	0	0	0	0	506	512	508	31	0	
9	0	0	0	0	0	505	513	509	31	0	
10	0	0	0	0	0	503	511	509	31	0	
11	0	0	0	0	1	503	509	511	32	0	
12	0	0	0	0	4	503	509	508	31	0	
13	0	0	0	0	0	504	510	509	31	0	
14	0	0	0	0	0	506	509	512	32	0	
15	0	0	0	0	0	504	510	509	32	0	
0	0	0	0	0	0	504	510	509	31	0	
1	0	0	0	0	0	504	513	507	31	0	
2	0	0	0	0	0	505	515	513	31	0	
3	0	0	0	0	1	505	513	511	31	0	
4	0	0	0	0	4	505	515	508	31	0	
5	0	0	0	0	0	507	515	508	31	0	
6	0	0	0	0	0	507	512	508	31	0	
7	0	0	0	0	0	504	512	508	31	0	
8	0	0	0	0	0	504	513	509	31	0	
9	0	0	0	0	0	507	514	509	31	0	
10	0	0	0	0	0	504	513	509	31	0	
11	0	0	0	0	0	503	511	508	31	0	
12	0	0	0	0	2	506	512	509	31	0	
13	0	0	0	0	0	507	512	511	31	0	
14	0	0	0	0	0	506	511	510	31	0	
15	0	0	0	0	0	505	513	512	31	0	
0	0	0	0	0	0	504	511	510	32	0	
1	0	0	0	0	0	504	515	511	31	0	
2	0	0	0	0	0	506	513	508	32	0	
3	0	0	0	0	0	507	513	508	31	0	
4	0	0	0	0	2	506	512	510	31	0	
5	0	0	0	0	0	507	511	508	31	0	
6	0	0	0	0	0	505	512	507	31	0	
7	0	0	0	0	0	504	513	508	31	0	
8	0	0	0	0	0	506	512	510	31	0	
9	0	0	0	0	0	504	512	509	31	0	
10	0	0	0	0	0	505	512	510	31	0	
11	0	0	0	0	0	505	512	511	31	0	
12	0	0	0	0	2	505	512	510	31	0	
13	0	0	0	0	0	504	512	508	31	0	
14	0	0	0	0	0	505	512	513	31	0	
15	0	0	0	0	0	504	513	510	31	0	
0	0	0	0	0	0	504	512	508	32	0	
1	0	0	0	0	0	504	512	509	32	0	
2	0	0	0	0	0	504	512	511	31	0	
3	0	0	0	0	1	504	512	510	31	0	
4	0	0	0	0	4	507	510	509	31	0	
5	0	0	0	0	0	508	507	508	31	0	
6	0	0	0	0	0	507	510	507	31	0	
7	0	0	0	0	0	507	512	506	31	0	
8	0	0	0	0	0	506	510	506	31	0	
9	0	0	0	0	0	507	509	504	31	0	
10	0	0	0	0	0	505	509	504	31	0	
11	0	0	0	0	1	508	511	505	31	0	
12	0	0	0	0	3	505	512	508	31	0	
13	0	0	0	0	0	503	512	507	31	0	
14	0	0	0	0	0	504	510	507	31	0	
15	0	0	0	0	0	502	512	506	31	0	
0	0	0	0	0	0	504	513	507	32	0	
1	0	0	0	0	0	504	514	510	32	0	
2	0	0	0	0	0	503	514	511	31	0	
3	0	0	0	0	0	504	515	513	31	0	
4	0	0	0	0	4	503	512	511	31	0	
5	0	0	0	0	0	502	510	511	31	0	
6	0	0	0	0	0	503	511	511	31	0	
7	0	0	0	0	0	504	511	508	31	0	
8	0	0	0	0	0	504	511	509	31	0	
9	0	0	0	0	0	505	511	511	31	0	
10	0	0	0	0	0	504	514	511	31	0	
11	0	0	0	0	1	505	514	512	31	0	
12	0	0	0	0	4	504	515	512	31	0	
13	0	0	0	0	0	507	513	510	31	0	
14	0	0	0	0	0	507	513	509	31	0	
15	0	0	0	0	0	505	513	505	31	0	
0	0	0	0	0	0	506	513	509	32	0	
1	0	0	0	0	0	504	509	513	31	0	
2	0	0	0	0	0	505	512	511	32	0	
3	0	0	0	0	0	506	511	512	32	0	
4	0	0	0	0	4	506	512	512	32	0	
5	0	0	0	0	0	507	513	508	32	0	
6	0	0	0	0	0	508	514	510	31	0	
7	0	0	0	0	0	508	515	508	31	0	
8	0	0	0	0	0	506	512	510	31	0	
9	0	0	0	0	0	507	513	508	31	0	
10	0	0	0	0	0	510	512	508	31	0	
11	0	0	0	0	1	508	510	510	31	0	
12	0	0	0	0	4	507	511	511	31	0	
13	0	0	0	0	0	504	513	507	31	0	
14	0	0	0	0	0	505	514	507	31	0	
15	0	0	0	0	0	502	513	508	31	0	
0	0	0	0	0	0	505	509	508	31	0	
1	0	0	0	0	0	505	511	509	31	0	
2	0	0	0	0	0	502	513	511	32	0	
3	0	0	0	0	1	502	510	515	32	0	
4	0	0	0	0	4	504	513	514	32	0	
5	0	0	0	0	0	502	513	511	32	0	
6	0	0	0	0	0	505	514	506	31	0	
7	0	0	0	0	0	507	515	508	31	0	
8	0	0	0	0	0	505	513	507	31	0	
9	0	0	0	0	0	505	513	510	31	0	
10	0	0	0	0	0	504	512	510	31	0	
11	0	0	0	0	0	505	513	505	31	0	
12	0	0	0	0	4	506	511	507	31	0	
13	0	0	0	0	0	504	511	506	31	0	
14	0	0	0	0	0	504	512	509	31	0	
15	0	0	0	0	0	504	511	510	31	0	
0	0	0	0	0	0	505	511	511	31	0	
1	0	0	0	0	0	505	510	511	32	0	
2	0	0	0	0	0	507	509	511	32	0	
3	0	0	0	0	1	505	511	510	31	0	
4	0	0	0	0	4	503	513	512	31	0	
5	0	0	0	0	0	505	510	512	31	0	
6	0	0	0	0	0	505	510	513	31	0	
7	0	0	0	0	0	504	512	510	31	0	
8	0	0	0	0	0	503	512	510	31	0	
9	0	0	0	0	0	505	515	508	31	0	
10	0	0	0	0	0	505	513	508	31	0	
11	0	0	0	0	1	508	513	503	31	0	
12	0	0	0	0	4	508	513	502	31	0	
13	0	0	0	0	0	507	512	504	31	0	
14	0	0	0	0	0	504	511	505	31	0	
15	0	0	0	0	0	505	511	508	32	0	
0	0	0	0	0	0	504	510	509	31	0	
1	0	0	0	0	0	505	512	511	31	0	
2	0	0	0	0	0	505	513	511	32	0	
3	0	0	0	0	1	504	513	512	31	0	
4	0	0	0	0	4	505	512	510	31	0	
5	0	0	0	0	0	503	511	509	31	0	
6	0	0	0	0	0	504	510	511	31	0	
7	0	0	0	0	0	503	510	510	31	0	
8	0	0	0	0	0	502	509	509	31	0	
9	0	0	0	0	0	502	510	510	31	0	
10	0	0	0	0	0	501	512	508	31	0	
11	0	0	0	0	0	504	512	511	31	0	
12	0	0	0	0	1	506	515	510	31	0	
13	0	0	0	0	0	506	515	508	31	0	
14	0	0	0	0	0	508	513	508	31	0	
15	0	0	0	0	0	510	514	510	31	0	
0	0	0	0	0	0	510	513	507	31	0	
1	0	0	0	0	0	511	512	510	31	0	
2	0	0	0	0	0	506	514	513	31	0	
3	0	0	0	0	0	506	512	511	31	0	
4	0	0	0	0	1	506	510	511	31	0	
5	0	0	0	0	0	505	510	508	32	0	
6	0	0	0	0	0	503	512	511	32	0	
7	0	0	0	0	0	503	512	510	32	0	
8	0	0	0	0	0	504	510	508	31	0	
9	0	0	0	0	0	505	512	508	31	0	
10	0	0	0	0	0	505	513	508	31	0	
11	0	0	0	0	0	508	515	508	31	0	
12	0	0	0	0	4	506	513	508	31	0	
13	0	0	0	0	0	505	514	509	31	0	
14	0	0	0	0	0	508	513	511	31	0	
15	0	0	0	0	0	508	513	510	31	0	
0	0	0	0	0	0	506	513	508	31	0	
1	0	0	0	0	0	506	513	508	31	0	
2	0	0	0	0	0	503	514	509	32	0	
3	0	0	0	0	1	503	513	505	31	0	
4	0	0	0	0	4	504	512	506	31	0	
5	0	0	0	0	0	503	509	510	31	0	
6	0	0	0	0	0	502	509	513	31	0	
7	0	0	0	0	0	505	511	510	31	0	
8	0	0	0	0	0	507	511	510	32	0	
9	0	0	0	0	0	504	513	509	31	0	
10	0	0	0	0	0	504	512	510	31	0	
11	0	0	0	0	1	507	513	510	31	0	
12	0	0	0	0	4	505	513	510	31	0	
13	0	0	0	0	0	504	515	508	31	0	
14	0	0	0	0	0	505	514	508	31	0	
15	0	0	0	0	0	506	514	510	32	0	
0	0	0	0	0	0	504	511	512	32	0	
1	0	0	0	0	0	503	512	512	31	0	
2	0	0	0	0	0	504	512	509	31	0	
3	0	0	0	0	1	506	512	508	31	0	
4	0	0	0	0	4	505	511	508	31	0	
5	0	0	0	0	0	505	512	509	31	0	
6	0	0	0	0	0	507	509	509	31	0	
7	0	0	0	0	0	507	509	511	31	0	
8	0	0	0	0	0	504	509	510	32	0	
9	0	0	0	0	0	504	511	510	32	0	
10	0	0	0	0	0	502	508	507	31	0	
11	0	0	0	0	0	504	511	508	31	0	
12	0	0	0	0	4	504	513	510	31	0	
13	0	0	0	0	0	503	514	510	31	0	
14	0	0	0	0	0	504	510	509	31	0	
15	0	0	0	0	0	505	512	506	31	0	
0	0	0	0	0	0	506	511	505	31	0	
1	0	0	0	0	0	507	511	507	31	0	
2	0	0	0	0	0	508	512	506	31	0	
3	0	0	0	0	0	508	515	507	31	0	
4	0	0	0	0	4	507	513	510	32	0	
5	0	0	0	0	0	505	513	507	32	0	
6	0	0	0	0	0	505	513	507	32	0	
7	0	0	0	0	0	504	515	505	31	0	
8	0	0	0	0	0	504	511	506	31	0	
9	0	0	0	0	0	502	513	514	31	0	
10	0	0	0	0	0	504	512	515	31	0	
11	0	0	0	0	0	505	512	516	31	0	
12	0	0	0	0	4	504	510	512	31	0	
13	0	0	0	0	0	504	511	509	31	0	
14	0	0	0	0	0	505	509	508	31	0	
15	0	0	0	0	0	508	510	508	31	0	
0	0	0	0	0	0	505	513	508	31	0	
1	0	0	0	0	0	505	512	510	31	0	
2	0	0	0	0	0	505	512	512	31	0	
3	0	0	0	0	1	505	512	512	31	0	
4	0	0	0	0	4	506	514	514	31	0	
5	0	0	0	0	0	504	512	511	31	0	
6	0	0	0	0	0	504	513	505	31	0	
7	0	0	0	0	0	503	511	505	31	0	
8	0	0	0	0	0	504	514	503	31	0	
9	0	0	0	0	0	503	511	506	32	0	
10	0	0	0	0	0	502	511	508	31	0	
11	0	0	0	0	1	505	512	506	31	0	
12	0	0	0	0	4	507	510	507	31	0	
13	0	0	0	0	0	506	510	507	31	0	
14	0	0	0	0	0	507	511	508	31	0	
15	0	0	0	0	0	507	510	509	31	0	
0	0	0	0	0	0	505	510	509	31	0	
1	0	0	0	0	0	504	511	510	31	0	
2	0	0	0	0	0	503	515	511	31	0	
3	0	0	0	0	0	504	512	510	31	0	
4	0	0	0	0	4	503	511	512	32	0	
5	0	0	0	0	0	503	512	511	31	0	
6	0	0	0	0	0	504	513	511	31	0	
7	0	0	0	0	0	507	512	509	31	0	
8	0	0	0	0	0	507	515	510	31	0	
9	0	0	0	0	0	506	515	510	31	0	
10	0	0	0	0	0	507	512	510	31	0	
11	0	0	0	0	1	508	512	506	32	0	
12	0	0	0	0	4	508	511	507	31	0	
13	0	0	0	0	0	507	513	505	31	0	
14	0	0	0	0	0	505	511	506	31	0	
15	0	0	0	0	0	502	512	510	31	0	
0	0	0	0	0	0	505	512	511	31	0	
1	0	0	0	0	0	504	509	510	31	0	
2	0	0	0	0	0	505	510	508	31	0	
3	0	0	0	0	0	502	513	508	31	0	
4	0	0	0	0	2	503	511	508	31	0	
5	0	0	0	0	0	504	511	506	31	0	
6	0	0	0	0	0	504	512	511	31	0	
7	0	0	0	0	0	505	512	511	31	0	
8	0	0	0	0	0	505	512	514	32	0	
9	0	0	0	0	0	504	513	513	32	0	
10	0	0	0	0	0	505	513	513	31	0	
11	0	0	0	0	1	507	513	511	31	0	
12	0	0	0	0	2	507	513	509	31	0	
13	0	0	0	0	0	505	513	508	31	0	
14	0	0	0	0	0	506	511	508	32	0	
15	0	0	0	0	0	506	511	507	31	0	
0	0	0	0	0	0	507	512	508	31	0	
1	0	0	0	0	0	507	512	506	31	0	
2	0	0	0	0	0	507	513	506	31	0	
3	0	0	0	0	0	506	511	508	31	0	
4	0	0	0	0	2	504	512	511	31	0	
5	0	0	0	0	0	503	514	510	31	0	
6	0	0	0	0	0	504	511	511	31	0	
7	0	0	0	0	0	504	511	510	31	0	
8	0	0	0	0	0	501	511	508	32	0	
9	0	0	0	0	0	504	509	510	31	0	
10	0	0	0	0	0	504	509	505	31	0	
11	0	0	0	0	0	507	513	504	31	0	
12	0	0	0	0	3	504	512	508	31	0	
13	0	0	0	0	0	503	512	512	32	0	
14	0	0	0	0	0	505	515	513	32	0	
15	0	0	0	0	0	505	513	511	32	0	
0	0	0	0	0	0	504	512	509	31	0	
1	0	0	0	0	0	507	513	511	32	0	
2	0	0	0	0	0	505	513	511	32	0	
3	0	0	0	0	1	505	510	507	31	0	
4	0	0	0	0	4	504	509	504	31	0	
5	0	0	0	0	0	504	511	505	31	0	
6	0	0	0	0	0	504	513	506	31	0	
7	0	0	0	0	0	504	512	511	31	0	
8	0	0	0	0	0	504	510	513	31	0	
9	0	0	0	0	0	504	511	518	31	0	
10	0	0	0	0	0	502	511	516	31	0	
11	0	0	0	0	1	503	511	512	31	0	
12	0	0	0	0	4	504	512	507	31	0	
13	0	0	0	0	0	505	512	506	31	0	
14	0	0	0	0	0	506	515	503	31	0	
15	0	0	0	0	0	504	512	504	31	0	
0	0	0	0	0	0	508	514	503	31	0	
1	0	0	0	0	0	508	512	508	31	0	
2	0	0	0	0	0	509	512	508	31	0	
3	0	0	0	0	1	511	513	504	31	0	
4	0	0	0	0	4	508	514	505	31	0	
5	0	0	0	0	0	507	515	509	31	0	
6	0	0	0	0	0	504	510	509	31	0	
7	0	0	0	0	0	506	510	510	32	0	
8	0	0	0	0	0	504	511	512	31	0	
9	0	0	0	0	0	504	510	513	31	0	
10	0	0	0	0	0	501	508	511	31	0	
11	0	0	0	0	1	503	508	511	32	0	
12	0	0	0	0	4	504	509	511	32	0	
13	0	0	0	0	0	505	511	511	31	0	
14	0	0	0	0	0	503	511	511	31	0	
15	0	0	0	0	0	504	511	512	31	0	
0	0	0	0	0	0	505	512	510	31	0	
1	0	0	0	0	0	506	512	512	31	0	
2	0	0	0	0	0	505	510	512	31	0	
3	0	0	0	0	0	505	515	509	31	0	
4	0	0	0	0	4	506	515	508	31	0	
5	0	0	0	0	0	508	513	505	31	0	
6	0	0	0	0	0	507	513	506	31	0	
7	0	0	0	0	0	504	514	507	31	0	
8	0	0	0	0	0	508	513	508	31	0	
9	0	0	0	0	0	505	513	508	31	0	
10	0	0	0	0	0	504	514	510	31	0	
11	0	0	0	0	0	504	511	509	31	0	
12	0	0	0	0	4	504	511	508	31	0	
13	0	0	0	0	0	505	511	510	31	0	
14	0	0	0	0	0	504	512	512	31	0	
15	0	0	0	0	0	507	511	508	31	0	
0	0	0	0	0	0	507	512	509	31	0	
1	0	0	0	0	0	504	512	510	31	0	
2	0	0	0	0	0	503	514	509	31	0	
3	0	0	0	0	0	505	512	511	31	0	
4	0	0	0	0	4	504	511	508	31	0	
5	0	0	0	0	0	504	511	512	31	0	
6	0	0	0	0	0	505	511	511	31	0	
7	0	0	0	0	0	503	514	511	31	0	
8	0	0	0	0	0	503	513	508	31	0	
9	0	0	0	0	0	504	513	511	31	0	
10	0	0	0	0	0	506	512	509	31	0	
11	0	0	0	0	1	506	513	508	31	0	
12	0	0	0	0	3	505	512	508	31	0	
13	0	0	0	0	0	508	513	508	31	0	
14	0	0	0	0	0	504	512	508	31	0	
15	0	0	0	0	0	505	513	509	31	0	
0	0	0	0	0	0	506	513	510	31	0	
1	0	0	0	0	0	507	511	510	31	0	
2	0	0	0	0	0	505	510	508	31	0	
3	0	0	0	0	1	504	511	510	31	0	
4	0	0	0	0	4	506	511	508	31	0	
5	0	0	0	0	0	505	514	508	31	0	
6	0	0	0	0	0	508	513	508	31	0	
7	0	0	0	0	0	507	509	508	31	0	
8	0	0	0	0	0	504	510	506	31	0	
9	0	0	0	0	0	503	513	508	31	0	
10	0	0	0	0	0	504	510	508	31	0	
11	0	0	0	0	0	507	511	509	31	0	
12	0	0	0	0	4	505	511	510	31	0	
13	0	0	0	0	0	506	512	509	31	0	
14	0	0	0	0	0	504	509	509	32	0	
15	0	0	0	0	0	507	512	509	31	0	
0	0	0	0	0	0	507	512	507	31	0	
1	0	0	0	0	0	504	513	504	31	0	
2	0	0	0	0	0	503	512	506	31	0	
3	0	0	0	0	0	503	511	509	31	0	
4	0	0	0	0	1	503	512	508	31	0	
5	0	0	0	0	0	502	512	508	31	0	
6	0	0	0	0	0	504	508	509	31	0	
7	0	0	0	0	0	505	514	511	31	0	
8	0	0	0	0	0	506	513	516	32	0	
9	0	0	0	0	0	502	515	515	32	0	
10	0	0	0	0	0	504	512	513	31	0	
11	0	0	0	0	0	504	511	513	31	0	
12	0	0	0	0	1	506	512	512	31	0	
13	0	0	0	0	0	505	514	511	31	0	
14	0	0	0	0	0	504	515	510	31	0	
15	0	0	0	0	0	504	514	506	31	0	
0	0	0	0	0	0	507	510	506	31	0	
1	0	0	0	0	0	504	511	505	31	0	
2	0	0	0	0	0	505	511	507	31	0	
3	0	0	0	0	0	507	512	507	31	0	
4	0	0	0	0	1	506	511	502	31	0	
5	0	0	0	0	0	505	514	507	31	0	
6	0	0	0	0	0	506	511	508	32	0	
7	0	0	0	0	0	505	514	509	31	0	
8	0	0	0	0	0	505	512	511	31	0	
9	0	0	0	0	0	505	514	509	31	0	
10	0	0	0	0	0	508	510	508	31	0	
11	0	0	0	0	0	504	512	511	31	0	
12	0	0	0	0	4	504	511	512	31	0	
13	0	0	0	0	0	504	511	512	32	0	
14	0	0	0	0	0	505	512	513	31	0	
15	0	0	0	0	0	505	510	509	31	0	
0	0	0	0	0	0	505	511	509	31	0	
1	0	0	0	0	0	505	512	510	31	0	
2	0	0	0	0	0	507	512	509	31	0	
3	0	0	0	0	1	506	510	510	31	0	
4	0	0	0	0	4	504	512	510	31	0	
5	0	0	0	0	0	503	513	506	31	0	
6	0	0	0	0	0	505	511	505	31	0	
7	0	0	0	0	0	505	513	508	31	0	
8	0	0	0	0	0	507	515	508	31	0	
9	0	0	0	0	0	506	513	508	31	0	
10	0	0	0	0	0	505	513	507	31	0	
11	0	0	0	0	1	507	514	509	31	0	
12	0	0	0	0	4	507	515	511	31	0	
13	0	0	0	0	0	507	512	510	31	0	
14	0	0	0	0	0	504	513	510	31	0	
15	0	0	0	0	0	502	510	509	31	0	
0	0	0	0	0	0	505	511	511	31	0	
1	0	0	0	0	0	504	509	513	32	0	
2	0	0	0	0	0	505	510	511	31	0	
3	0	0	0	0	1	503	512	511	31	0	
4	0	0	0	0	4	506	511	508	31	0	
5	0	0	0	0	0	506	512	508	31	0	
6	0	0	0	0	0	505	513	506	31	0	
7	0	0	0	0	0	505	513	507	31	0	
8	0	0	0	0	0	507	515	510	31	0	
9	0	0	0	0	0	506	512	510	31	0	
10	0	0	0	0	0	505	511	509	31	0	
11	0	0	0	0	1	506	511	511	31	0	
12	0	0	0	0	4	506	513	510	31	0	
13	0	0	0	0	0	505	511	510	31	0	
14	0	0	0	0	0	506	510	510	32	0	
15	0	0	0	0	0	503	513	509	32	0	
0	0	0	0	0	0	502	512	511	32	0	
1	0	0	0	0	0	502	515	508	31	0	
2	0	0	0	0	0	503	514	512	31	0	
3	0	0	0	0	0	504	513	510	31	0	
4	0	0	0	0	4	504	512	510	31	0	
5	0	0	0	0	0	505	511	508	31	0	
6	0	0	0	0	0	504	512	509	31	0	
7	0	0	0	0	0	508	511	508	31	0	
8	0	0	0	0	0	507	511	509	31	0	
9	0	0	0	0	0	505	511	510	31	0	
10	0	0	0	0	0	506	509	508	31	0	
11	0	0	0	0	0	507	512	508	31	0	
12	0	0	0	0	4	506	511	507	31	0	
13	0	0	0	0	0	504	512	510	31	0	
14	0	0	0	0	0	504	513	509	31	0	
15	0	0	0	0	0	503	512	509	31	0	
0	0	0	0	0	0	503	513	508	31	0	
1	0	0	0	0	0	505	512	512	31	0	
2	0	0	0	0	0	505	512	510	31	0	
3	0	0	0	0	1	508	513	508	31	0	
4	0	0	0	0	4	507	512	508	31	0	
5	0	0	0	0	0	505	513	510	31	0	
6	0	0	0	0	0	506	512	511	32	0	
7	0	0	0	0	0	504	511	507	31	0	
8	0	0	0	0	0	504	511	507	32	0	
9	0	0	0	0	0	503	514	508	31	0	
10	0	0	0	0	0	504	513	506	31	0	
11	0	0	0	0	1	507	512	510	31	0	
12	0	0	0	0	4	507	511	509	31	0	
13	0	0	0	0	0	505	512	510	31	0	
14	0	0	0	0	0	506	513	510	31	0	
15	0	0	0	0	0	504	514	509	31	0	
0	0	0	0	0	0	507	512	510	31	0	
1	0	0	0	0	0	507	512	507	31	0	
2	0	0	0	0	0	507	512	510	31	0	
3	0	0	0	0	1	505	513	511	31	0	
4	0	0	0	0	4	504	511	509	31	0	
5	0	0	0	0	0	504	513	511	31	0	
6	0	0	0	0	0	503	513	511	31	0	
7	0	0	0	0	0	505	510	510	31	0	
8	0	0	0	0	0	504	511	508	31	0	
9	0	0	0	0	0	503	509	508	31	0	
10	0	0	0	0	0	504	511	505	31	0	
11	0	0	0	0	1	506	512	508	31	0	
12	0	0	0	0	4	505	511	510	31	0	
13	0	0	0	0	0	504	513	510	31	0	
14	0	0	0	0	0	506	511	508	31	0	
15	0	0	0	0	0	506	512	509	31	0	
0	0	0	0	0	0	507	513	510	31	0	
1	0	0	0	0	0	506	514	510	31	0	
2	0	0	0	0	0	505	514	506	31	0	
3	0	0	0	0	0	508	513	510	31	0	
4	0	0	0	0	2	504	512	511	31	0	
5	0	0	0	0	0	507	512	510	31	0	
6	0	0	0	0	0	505	512	511	31	0	
7	0	0	0	0	0	506	513	512	31	0	
8	0	0	0	0	0	506	511	513	31	0	
9	0	0	0	0	0	504	512	512	31	0	
10	0	0	0	0	0	505	512	512	31	0	
11	0	0	0	0	0	505	512	508	31	0	
12	0	0	0	0	2	505	510	508	31	0	
13	0	0	0	0	0	503	512	504	31	0	
14	0	0	0	0	0	504	515	500	31	0	
15	0	0	0	0	0	505	510	500	31	0	
0	0	0	0	0	0	503	509	502	31	0	
1	0	0	0	0	0	500	510	508	31	0	
2	0	0	0	0	0	503	514	510	31	0	
3	0	0	0	0	1	505	514	511	31	0	
4	0	0	0	0	4	505	514	515	31	0	
5	0	0	0	0	0	504	511	510	32	0	
6	0	0	0	0	0	503	513	512	31	0	
7	0	0	0	0	0	507	514	511	31	0	
8	0	0	0	0	0	505	514	515	32	0	
9	0	0	0	0	0	507	512	512	31	0	
10	0	0	0	0	0	508	512	510	31	0	
11	0	0	0	0	1	508	509	506	31	0	
12	0	0	0	0	4	507	512	505	31	0	
13	0	0	0	0	0	504	513	506	31	0	
14	0	0	0	0	0	504	513	512	31	0	
15	0	0	0	0	0	505	513	512	31	0	
0	0	0	0	0	0	503	512	512	31	0	
1	0	0	0	0	0	503	513	510	31	0	
2	0	0	0	0	0	503	513	511	31	0	
3	0	0	0	0	0	504	513	510	31	0	
4	0	0	0	0	4	505	515	508	31	0	
5	0	0	0	0	0	507	514	510	31	0	
6	0	0	0	0	0	506	511	508	32	0	
7	0	0	0	0	0	507	510	508	32	0	
8	0	0	0	0	0	508	511	508	32	0	
9	0	0	0	0	0	504	511	508	32	0	
10	0	0	0	0	0	505	513	508	31	0	
11	0	0	0	0	0	505	511	508	31	0	
12	0	0	0	0	4	505	511	509	31	0	
13	0	0	0	0	0	504	511	510	31	0	
14	0	0	0	0	0	504	510	511	31	0	
15	0	0	0	0	0	506	511	513	31	0	
0	0	0	0	0	0	504	513	511	31	0	
1	0	0	0	0	0	504	512	507	31	0	
2	0	0	0	0	0	504	513	509	31	0	
3	0	0	0	0	0	507	512	507	31	0	
4	0	0	0	0	4	504	511	507	31	0	
5	0	0	0	0	0	505	514	508	31	0	
6	0	0	0	0	0	504	515	508	31	0	
7	0	0	0	0	0	505	513	511	31	0	
8	0	0	0	0	0	506	512	509	31	0	
9	0	0	0	0	0	507	511	507	31	0	
10	0	0	0	0	0	507	512	510	31	0	
11	0	0	0	0	0	504	509	510	31	0	
12	0	0	0	0	4	507	510	507	31	0	
13	0	0	0	0	0	505	510	507	32	0	
14	0	0	0	0	0	506	510	508	31	0	
15	0	0	0	0	0	504	513	510	31	0	
0	0	0	0	0	0	504	513	512	31	0	
1	0	0	0	0	0	505	513	512	31	0	
2	0	0	0	0	0	504	513	510	32	0	
3	0	0	0	0	1	503	512	511	31	0	
4	0	0	0	0	4	504	514	511	31	0	
5	0	0	0	0	0	503	511	511	31	0	
6	0	0	0	0	0	504	511	509	32	0	
7	0	0	0	0	0	505	511	509	31	0	
8	0	0	0	0	0	507	512	509	31	0	
9	0	0	0	0	0	506	509	510	31	0	
10	0	0	0	0	0	509	511	508	31	0	
11	0	0	0	0	1	506	512	503	31	0	
12	0	0	0	0	4	504	514	505	31	0	
13	0	0	0	0	0	503	513	507	31	0	
14	0	0	0	0	0	504	513	508	31	0	
15	0	0	0	0	0	504	512	512	31	0	
0	0	0	0	0	0	504	509	511	32	0	
1	0	0	0	0	0	504	509	510	31	0	
2	0	0	0	0	0	509	512	504	31	0	
3	0	0	0	0	0	505	511	504	32	0	
4	0	0	0	0	4	505	513	510	31	0	
5	0	0	0	0	0	501	514	515	31	0	
6	0	0	0	0	0	500	515	512	32	0	
7	0	0	0	0	0	503	513	512	31	0	
8	0	0	0	0	0	505	512	511	31	0	
9	0	0	0	0	0	504	515	512	32	0	
10	0	0	0	0	0	505	515	513	32	0	
11	0	0	0	0	0	507	513	510	32	0	
12	0	0	0	0	4	507	511	509	31	0	
13	0	0	0	0	0	509	511	507	31	0	
14	0	0	0	0	0	507	515	508	31	0	
15	0	0	0	0	0	507	513	507	31	0	
0	0	0	0	0	0	508	512	510	31	0	
1	0	0	0	0	0	509	512	505	31	0	
2	0	0	0	0	0	507	512	505	31	0	
3	0	0	0	0	1	505	511	509	32	0	
4	0	0	0	0	4	507	511	508	31	0	
5	0	0	0	0	0	507	513	508	31	0	
6	0	0	0	0	0	505	511	513	32	0	
7	0	0	0	0	0	504	514	515	31	0	
8	0	0	0	0	0	504	512	512	31	0	
9	0	0	0	0	0	507	512	508	31	0	
10	0	0	0	0	0	508	511	505	31	0	
11	0	0	0	0	0	507	512	505	31	0	
12	0	0	0	0	1	507	510	504	31	0	
13	0	0	0	0	0	504	512	504	31	0	
14	0	0	0	0	0	504	511	509	31	0	
15	0	0	0	0	0	502	511	511	31	0	
0	0	0	0	0	0	502	511	517	31	0	
1	0	0	0	0	0	500	510	514	31	0	
2	0	0	0	0	0	501	510	511	31	0	
3	0	0	0	0	0	500	512	512	31	0	
4	0	0	0	0	1	501	513	508	31	0	
5	0	0	0	0	0	504	512	509	31	0	
6	0	0	0	0	0	505	510	513	32	0	
7	0	0	0	0	0	506	510	510	32	0	
8	0	0	0	0	0	508	512	506	32	0	
9	0	0	0	0	0	510	514	504	31	0	
10	0	0	0	0	0	510	517	507	31	0	
11	0	0	0	0	0	507	516	505	31	0	
12	0	0	0	0	1	505	514	504	31	0	
13	0	0	0	0	0	504	513	504	31	0	
14	0	0	0	0	0	506	512	507	31	0	
15	0	0	0	0	0	506	510	509	31	0	
0	0	0	0	0	0	506	511	513	31	0	
1	0	0	0	0	0	502	515	512	31	0	
2	0	0	0	0	0	503	512	507	31	0	
3	0	0	0	0	1	502	509	509	31	0	
4	0	0	0	0	4	504	514	515	31	0	
5	0	0	0	0	0	506	511	515	32	0	
6	0	0	0	0	0	505	512	513	31	0	
7	0	0	0	0	0	504	511	513	31	0	
8	0	0	0	0	0	504	510	509	31	0	
9	0	0	0	0	0	506	512	508	31	0	
10	0	0	0	0	0	508	512	503	31	0	
11	0	0	0	0	1	507	512	506	31	0	
12	0	0	0	0	4	505	511	509	31	0	
13	0	0	0	0	0	505	511	511	31	0	
14	0	0	0	0	0	507	513	505	31	0	
15	0	0	0	0	0	508	512	505	32	0	
0	0	0	0	0	0	508	513	508	32	0	
1	0	0	0	0	0	505	512	508	32	0	
2	0	0	0	0	0	504	515	511	31	0	
3	0	0	0	0	1	502	515	513	31	0	
4	0	0	0	0	4	503	512	513	31	0	
5	0	0	0	0	0	503	512	511	31	0	
6	0	0	0	0	0	505	512	509	31	0	
7	0	0	0	0	0	505	511	509	31	0	
8	0	0	0	0	0	502	511	507	31	0	
9	0	0	0	0	0	504	510	507	31	0	
10	0	0	0	0	0	504	510	508	31	0	
11	0	0	0	0	1	505	512	508	31	0	
12	0	0	0	0	4	505	511	510	31	0	
13	0	0	0	0	0	508	513	509	31	0	
14	0	0	0	0	0	505	512	509	31	0	
15	0	0	0	0	0	503	512	512	31	0	
0	0	0	0	0	0	504	514	509	31	0	
1	0	0	0	0	0	505	513	506	31	0	
2	0	0	0	0	0	507	511	504	31	0	
3	0	0	0	0	0	508	514	508	31	0	
4	0	0	0	0	4	505	516	510	31	0	
5	0	0	0	0	0	504	515	508	31	0	
6	0	0	0	0	0	506	515	508	31	0	
7	0	0	0	0	0	504	514	510	31	0	
8	0	0	0	0	0	505	513	511	31	0	
9	0	0	0	0	0	504	511	512	32	0	
10	0	0	0	0	0	502	511	513	32	0	
11	0	0	0	0	1	504	512	514	32	0	
12	0	0	0	0	4	505	511	511	31	0	
13	0	0	0	0	0	505	511	510	32	0	
14	0	0	0	0	0	506	509	510	31	0	
15	0	0	0	0	0	507	511	510	31	0	
0	0	0	0	0	0	506	511	510	31	0	
1	0	0	0	0	0	505	511	507	31	0	
2	0	0	0	0	0	506	511	504	31	0	
3	0	0	0	0	0	507	511	502	31	0	
4	0	0	0	0	4	504	510	505	31	0	
5	0	0	0	0	0	504	512	507	31	0	
6	0	0	0	0	0	507	512	509	31	0	
7	0	0	0	0	0	505	513	509	31	0	
8	0	0	0	0	0	508	513	507	31	0	
9	0	0	0	0	0	505	511	508	31	0	
10	0	0	0	0	0	504	512	507	31	0	
11	0	0	0	0	1	504	513	509	31	0	
12	0	0	0	0	4	505	512	507	31	0	
13	0	0	0	0	0	506	515	507	31	0	
14	0	0	0	0	0	507	515	508	31	0	
15	0	0	0	0	0	504	512	511	31	0	
0	0	0	0	0	0	503	514	512	32	0	
1	0	0	0	0	0	504	512	513	32	0	
2	0	0	0	0	0	502	511	508	31	0	
3	0	0	0	0	1	506	511	507	31	0	
4	0	0	0	0	4	507	511	508	31	0	
5	0	0	0	0	0	506	513	510	32	0	
6	0	0	0	0	0	505	510	510	31	0	
7	0	0	0	0	0	506	510	514	31	0	
8	0	0	0	0	0	504	512	512	32	0	
9	0	0	0	0	0	506	511	509	31	0	
10	0	0	0	0	0	506	512	512	31	0	
11	0	0	0	0	1	506	509	509	31	0	
12	0	0	0	0	4	506	507	504	31	0	
13	0	0	0	0	0	503	510	504	31	0	
14	0	0	0	0	0	504	512	511	31	0	
15	0	0	0	0	0	502	511	518	31	0	
0	0	0	0	0	0	505	512	513	31	0	
1	0	0	0	0	0	506	512	511	31	0	
2	0	0	0	0	0	504	512	510	31	0	
3	0	0	0	0	0	501	513	509	31	0	
4	0	0	0	0	4	499	516	507	31	0	
5	0	0	0	0	0	505	515	508	31	0	
6	0	0	0	0	0	507	515	507	31	0	
7	0	0	0	0	0	507	514	507	31	0	
8	0	0	0	0	0	507	511	509	31	0	
9	0	0	0	0	0	506	511	510	32	0	
10	0	0	0	0	0	507	513	508	31	0	
11	0	0	0	0	0	507	510	507	32	0	
12	0	0	0	0	2	507	512	510	31	0	
13	0	0	0	0	0	502	511	510	32	0	
14	0	0	0	0	0	502	509	512	32	0	
15	0	0	0	0	0	504	511	512	32	0	
0	0	0	0	0	0	504	509	510	31	0	
1	0	0	0	0	0	507	509	510	31	0	
2	0	0	0	0	0	508	511	508	32	0	
3	0	0	0	0	0	507	509	510	32	0	
4	0	0	0	0	2	506	513	509	31	0	
5	0	0	0	0	0	506	514	506	31	0	
6	0	0	0	0	0	508	516	505	31	0	
7	0	0	0	0	0	507	513	508	31	0	
8	0	0	0	0	0	508	511	505	31	0	
9	0	0	0	0	0	507	512	504	31	0	
10	0	0	0	0	0	506	513	508	31	0	
11	0	0	0	0	0	504	513	508	32	0	
12	0	0	0	0	2	502	510	511	32	0	
13	0	0	0	0	0	503	508	511	31	0	
14	0	0	0	0	0	503	511	510	31	0	
15	0	0	0	0	0	504	509	508	32	0	
0	0	0	0	0	0	504	512	511	32	0	
1	0	0	0	0	0	505	512	510	31	0	
2	0	0	0	0	0	503	516	509	31	0	
3	0	0	0	0	0	504	514	505	31	0	
4	0	0	0	0	4	503	513	504	31	0	
5	0	0	0	0	0	505	511	504	31	0	
6	0	0	0	0	0	507	513	506	31	0	
7	0	0	0	0	0	511	513	504	31	0	
8	0	0	0	0	0	508	512	507	31	0	
9	0	0	0	0	0	502	513	509	31	0	
10	0	0	0	0	0	504	513	508	31	0	
11	0	0	0	0	1	508	514	514	31	0	
12	0	0	0	0	4	503	511	521	31	0	
13	0	0	0	0	0	504	511	516	31	0	
14	0	0	0	0	0	505	512	515	31	0	
15	0	0	0	0	0	505	511	510	31	0	
0	0	0	0	0	0	504	511	511	32	0	
1	0	0	0	0	0	503	512	512	31	0	
2	0	0	0	0	0	503	511	511	31	0	
3	0	0	0	0	1	503	512	511	31	0	
4	0	0	0	0	4	504	510	511	31	0	
5	0	0	0	0	0	507	510	506	31	0	
6	0	0	0	0	0	506	511	504	31	0	
7	0	0	0	0	0	505	514	505	31	0	
8	0	0	0	0	0	505	517	508	31	0	
9	0	0	0	0	0	507	515	508	31	0	
10	0	0	0	0	0	507	513	512	31	0	
11	0	0	0	0	1	505	513	513	32	0	
12	0	0	0	0	4	507	511	509	32	0	
13	0	0	0	0	0	509	510	509	32	0	
14	0	0	0	0	0	510	510	511	31	0	
15	0	0	0	0	0	508	515	509	31	0	
0	0	0	0	0	0	507	516	509	32	0	
1	0	0	0	0	0	509	511	506	31	0	
2	0	0	0	0	0	508	510	507	31	0	
3	0	0	0	0	0	506	511	507	31	0	
4	0	0	0	0	4	504	512	510	32	0	
5	0	0	0	0	0	504	512	507	32	0	
6	0	0	0	0	0	504	513	503	31	0	
7	0	0	0	0	0	504	513	505	31	0	
8	0	0	0	0	0	500	512	510	31	0	
9	0	0	0	0	0	503	508	515	31	0	
10	0	0	0	0	0	502	512	519	32	0	
11	0	0	0	0	1	502	515	516	31	0	
12	0	0	0	0	4	504	515	515	31	0	
13	0	0	0	0	0	505	514	507	31	0	
14	0	0	0	0	0	507	513	509	31	0	
15	0	0	0	0	0	507	511	507	32	0	
0	0	0	0	0	0	508	508	506	31	0	
1	0	0	0	0	0	504	508	509	31	0	
2	0	0	0	0	0	506	510	508	31	0	
3	0	0	0	0	0	506	510	505	31	0	
4	0	0	0	0	4	505	508	507	31	0	
5	0	0	0	0	0	506	509	507	31	0	
6	0	0	0	0	0	505	510	509	31	0	
7	0	0	0	0	0	505	512	511	31	0	
8	0	0	0	0	0	505	515	508	31	0	
9	0	0	0	0	0	508	513	508	31	0	
10	0	0	0	0	0	504	514	510	31	0	
11	0	0	0	0	0	503	511	515	31	0	
12	0	0	0	0	4	504	512	512	31	0	
13	0	0	0	0	0	507	515	508	31	0	
14	0	0	0	0	0	506	518	507	31	0	
15	0	0	0	0	0	507	514	508	31	0	
0	0	0	0	0	0	506	510	502	31	0	
1	0	0	0	0	0	505	511	508	32	0	
2	0	0	0	0	0	507	514	510	32	0	
3	0	0	0	0	1	505	516	503	31	0	
4	0	0	0	0	4	504	513	502	31	0	
5	0	0	0	0	0	504	512	504	31	0	
6	0	0	0	0	0	504	507	513	32	0	
7	0	0	0	0	0	500	504	526	32	0	
8	0	0	0	0	0	499	510	522	32	0	
9	0	0	0	0	0	504	512	510	31	0	
10	0	0	0	0	0	506	516	504	31	0	
11	0	0	0	0	1	506	518	506	31	0	
12	0	0	0	0	4	505	515	509	31	0	
13	0	0	0	0	0	505	514	513	31	0	
14	0	0	0	0	0	504	514	516	31	0	
15	0	0	0	0	0	505	516	514	32	0	
0	0	0	0	0	0	506	515	516	32	0	
1	0	0	0	0	0	506	508	509	32	0	
2	0	0	0	0	0	508	511	501	31	0	
3	0	0	0	0	1	508	510	506	31	0	
4	0	0	0	0	4	508	507	504	31	0	
5	0	0	0	0	0	505	508	503	31	0	
6	0	0	0	0	0	507	510	504	31	0	
7	0	0	0	0	0	505	512	508	31	0	
8	0	0	0	0	0	507	512	511	31	0	
9	0	0	0	0	0	507	514	511	31	0	
10	0	0	0	0	0	505	515	510	31	0	
11	0	0	0	0	0	505	515	509	31	0	
12	0	0	0	0	1	504	513	510	31	0	
13	0	0	0	0	0	504	511	508	31	0	
14	0	0	0	0	0	500	508	510	31	0	
15	0	0	0	0	0	503	509	512	32	0	
0	0	0	0	0	0	503	510	512	31	0	
1	0	0	0	0	0	506	513	510	31	0	
2	0	0	0	0	0	505	512	510	31	0	
3	0	0	0	0	0	506	512	510	31	0	
4	0	0	0	0	1	508	512	501	31	0	
5	0	0	0	0	0	511	510	502	31	0	
6	0	0	0	0	0	510	510	508	31	0	
7	0	0	0	0	0	508	516	512	31	0	
8	0	0	0	0	0	503	517	513	31	0	
9	0	0	0	0	0	503	517	510	31	0	
10	0	0	0	0	0	504	511	510	32	0	
11	0	0	0	0	1	505	511	509	32	0	
12	0	0	0	0	4	505	512	504	31	0	
13	0	0	0	0	0	505	511	506	31	0	
14	0	0	0	0	0	505	514	512	31	0	
15	0	0	0	0	0	505	514	504	31	0	
0	0	0	0	0	0	504	510	493	31	0	
1	0	0	0	0	0	504	509	507	32	0	
2	0	0	0	0	0	500	513	534	32	0	
3	0	0	0	0	0	502	511	529	31	0	
4	0	0	0	0	4	500	510	522	32	0	
5	0	0	0	0	0	500	510	514	32	0	
6	0	0	0	0	0	504	510	507	32	0	
7	0	0	0	0	0	504	512	503	31	0	
8	0	0	0	0	0	507	511	500	31	0	
9	0	0	0	0	0	507	512	502	31	0	
10	0	0	0	0	0	504	513	501	31	0	
11	0	0	0	0	1	504	511	504	31	0	
12	0	0	0	0	4	503	510	507	31	0	
13	0	0	0	0	0	504	511	512	32	0	
14	0	0	0	0	0	505	510	512	32	0	
15	0	0	0	0	0	508	511	508	31	0	
0	0	0	0	0	0	508	514	512	32	0	
1	0	0	0	0	0	507	513	510	32	0	
2	0	0	0	0	0	508	514	511	32	0	
3	0	0	0	0	1	509	514	507	31	0	
4	0	0	0	0	4	507	515	506	31	0	
5	0	0	0	0	0	505	510	504	31	0	
6	0	0	0	0	0	506	511	507	31	0	
7	0	0	0	0	0	505	512	507	31	0	
8	0	0	0	0	0	505	511	508	31	0	
9	0	0	0	0	0	503	509	505	31	0	
10	0	0	0	0	0	505	511	509	31	0	
11	0	0	0	0	0	507	511	513	31	0	
12	0	0	0	0	4	504	513	512	31	0	
13	0	0	0	0	0	507	512	511	31	0	
14	0	0	0	0	0	507	511	510	31	0	
15	0	0	0	0	0	507	513	511	31	0	
0	0	0	0	0	0	505	512	508	31	0	
1	0	0	0	0	0	503	512	510	31	0	
2	0	0	0	0	0	504	513	508	32	0	
3	0	0	0	0	1	505	517	507	31	0	
4	0	0	0	0	4	505	517	508	31	0	
5	0	0	0	0	0	505	514	512	31	0	
6	0	0	0	0	0	504	511	508	32	0	
7	0	0	0	0	0	505	511	509	32	0	
8	0	0	0	0	0	505	509	507	32	0	
9	0	0	0	0	0	505	511	509	31	0	
10	0	0	0	0	0	505	512	510	31	0	
11	0	0	0	0	0	507	512	511	31	0	
12	0	0	0	0	4	508	512	510	31	0	
13	0	0	0	0	0	506	513	515	31	0	
14	0	0	0	0	0	502	510	512	31	0	
15	0	0	0	0	0	501	518	508	31	0	
0	0	0	0	0	0	504	515	504	31	0	
1	0	0	0	0	0	505	515	507	31	0	
2	0	0	0	0	0	503	513	512	31	0	
3	0	0	0	0	0	504	511	515	31	0	
4	0	0	0	0	4	504	510	516	31	0	
5	0	0	0	0	0	503	511	516	31	0	
6	0	0	0	0	0	504	510	512	31	0	
7	0	0	0	0	0	504	510	505	31	0	
8	0	0	0	0	0	504	508	502	32	0	
9	0	0	0	0	0	506	510	501	32	0	
10	0	0	0	0	0	505	512	503	32	0	
11	0	0	0	0	0	504	514	505	31	0	
12	0	0	0	0	4	505	511	504	31	0	
13	0	0	0	0	0	508	511	508	31	0	
14	0	0	0	0	0	509	510	509	31	0	
15	0	0	0	0	0	508	511	507	31	0	
0	0	0	0	0	0	505	513	509	31	0	
1	0	0	0	0	0	506	513	513	31	0	
2	0	0	0	0	0	504	512	513	31	0	
3	0	0	0	0	1	508	515	513	31	0	
4	0	0	0	0	4	505	512	512	31	0	
5	0	0	0	0	0	503	510	510	32	0	
6	0	0	0	0	0	503	512	511	31	0	
7	0	0	0	0	0	503	511	510	31	0	
8	0	0	0	0	0	504	510	509	31	0	
9	0	0	0	0	0	505	515	508	31	0	
10	0	0	0	0	0	504	513	506	31	0	
11	0	0	0	0	1	503	512	509	31	0	
12	0	0	0	0	3	504	512	511	31	0	
13	0	0	0	0	0	504	515	509	32	0	
14	0	0	0	0	0	508	516	507	31	0	
15	0	0	0	0	0	508	513	505	31	0	
0	0	0	0	0	0	512	513	507	32	0	
1	0	0	0	0	0	511	513	505	31	0	
2	0	0	0	0	0	506	512	508	31	0	
3	0	0	0	0	0	505	514	505	31	0	
4	0	0	0	0	2	504	510	509	31	0	
5	0	0	0	0	0	503	509	510	32	0	
6	0	0	0	0	0	502	509	511	32	0	
7	0	0	0	0	0	501	507	511	32	0	
8	0	0	0	0	0	503	506	512	32	0	
9	0	0	0	0	0	502	508	514	32	0	
10	0	0	0	0	0	503	511	512	31	0	
11	0	0	0	0	0	504	513	507	31	0	
12	0	0	0	0	2	507	516	509	31	0	
13	0	0	0	0	0	509	514	506	31	0	
14	0	0	0	0	0	508	513	505	31	0	
15	0	0	0	0	0	508	512	505	31	0	
0	0	0	0	0	0	510	513	503	31	0	
1	0	0	0	0	0	507	513	507	31	0	
2	0	0	0	0	0	502	513	511	31	0	
3	0	0	0	0	0	501	511	514	31	0	
4	0	0	0	0	2	500	510	515	31	0	
5	0	0	0	0	0	499	510	511	32	0	
6	0	0	0	0	0	501	511	509	32	0	
7	0	0	0	0	0	505	511	509	32	0	
8	0	0	0	0	0	506	514	508	31	0	
9	0	0	0	0	0	505	512	508	31	0	
10	0	0	0	0	0	506	514	509	32	0	
11	0	0	0	0	1	507	512	510	31	0	
12	0	0	0	0	3	507	513	511	31	0	
13	0	0	0	0	0	505	517	513	31	0	
14	0	0	0	0	0	507	516	512	31	0	
15	0	0	0	0	0	505	514	513	31	0	
0	0	0	0	0	0	505	512	514	31	0	
1	0	0	0	0	0	507	512	513	31	0	
2	0	0	0	0	0	506	512	511	31	0	
3	0	0	0	0	1	508	513	505	31	0	
4	0	0	0	0	4	505	513	502	31	0	
5	0	0	0	0	0	505	513	500	31	0	
6	0	0	0	0	0	507	510	504	31	0	
7	0	0	0	0	0	506	510	506	31	0	
8	0	0	0	0	0	505	512	506	31	0	
9	0	0	0	0	0	503	510	507	32	0	
10	0	0	0	0	0	503	509	508	32	0	
11	0	0	0	0	1	504	510	511	32	0	
12	0	0	0	0	3	505	511	513	32	0	
13	0	0	0	0	0	507	508	515	32	0	
14	0	0	0	0	0	503	512	512	32	0	
15	0	0	0	0	0	502	511	511	31	0	
0	0	0	0	0	0	504	512	508	31	0	
1	0	0	0	0	0	506	514	504	31	0	
2	0	0	0	0	0	507	515	504	30	0	
3	0	0	0	0	1	507	512	501	31	0	
4	0	0	0	0	4	505	510	505	31	0	
5	0	0	0	0	0	503	509	510	31	0	
6	0	0	0	0	0	504	511	514	32	0	
7	0	0	0	0	0	501	511	513	32	0	
8	0	0	0	0	0	502	512	512	32	0	
9	0	0	0	0	0	504	513	513	31	0	
10	0	0	0	0	0	504	509	512	32	0	
11	0	0	0	0	0	507	511	512	31	0	
12	0	0	0	0	4	506	511	515	31	0	
13	0	0	0	0	0	506	513	516	31	0	
14	0	0	0	0	0	505	510	513	32	0	
15	0	0	0	0	0	507	514	509	32	0	
0	0	0	0	0	0	507	517	504	31	0	
1	0	0	0	0	0	509	518	503	31	0	
2	0	0	0	0	0	511	515	504	31	0	
3	0	0	0	0	0	507	513	507	31	0	
4	0	0	0	0	4	504	511	506	31	0	
5	0	0	0	0	0	504	510	508	31	0	
6	0	0	0	0	0	504	507	510	31	0	
7	0	0	0	0	0	502	511	512	31	0	
8	0	0	0	0	0	501	512	512	32	0	
9	0	0	0	0	0	498	511	512	31	0	
10	0	0	0	0	0	501	512	511	31	0	
11	0	0	0	0	1	507	509	511	32	0	
12	0	0	0	0	4	511	510	509	32	0	
13	0	0	0	0	0	508	513	514	32	0	
14	0	0	0	0	0	504	513	510	31	0	
15	0	0	0	0	0	508	514	505	31	0	
0	0	0	0	0	0	506	511	508	31	0	
1	0	0	0	0	0	504	509	507	31	0	
2	0	0	0	0	0	504	508	508	31	0	
3	0	0	0	0	1	504	506	509	31	0	
4	0	0	0	0	4	502	508	512	31	0	
5	0	0	0	0	0	506	508	511	31	0	
6	0	0	0	0	0	503	511	512	31	0	
7	0	0	0	0	0	500	511	510	31	0	
8	0	0	0	0	0	502	515	506	31	0	
9	0	0	0	0	0	505	519	507	31	0	
10	0	0	0	0	0	507	523	511	31	0	
11	0	0	0	0	0	510	519	510	31	0	
12	0	0	0	0	4	512	516	508	31	0	
13	0	0	0	0	0	510	511	508	31	0	
14	0	0	0	0	0	507	512	508	31	0	
15	0	0	0	0	0	505	508	508	31	0	
0	0	0	0	0	0	505	510	511	32	0	
1	0	0	0	0	0	506	511	509	32	0	
2	0	0	0	0	0	508	511	512	32	0	
3	0	0	0	0	1	506	514	515	32	0	
4	0	0	0	0	4	503	513	510	32	0	
5	0	0	0	0	0	504	514	506	31	0	
6	0	0	0	0	0	505	513	505	31	0	
7	0	0	0	0	0	505	512	504	31	0	
8	0	0	0	0	0	505	516	506	31	0	
9	0	0	0	0	0	504	516	510	31	0	
10	0	0	0	0	0	505	510	506	32	0	
11	0	0	0	0	0	502	510	512	32	0	
12	0	0	0	0	4	503	508	510	31	0	
13	0	0	0	0	0	505	512	506	31	0	
14	0	0	0	0	0	508	510	502	31	0	
15	0	0	0	0	0	508	510	507	31	0	
0	0	0	0	0	0	503	508	510	31	0	
1	0	0	0	0	0	503	509	512	31	0	
2	0	0	0	0	0	502	508	515	31	0	
3	0	0	0	0	0	503	512	513	32	0	
4	0	0	0	0	1	504	514	515	31	0	
5	0	0	0	0	0	504	516	518	31	0	
6	0	0	0	0	0	505	511	514	32	0	
7	0	0	0	0	0	504	511	509	32	0	
8	0	0	0	0	0	504	509	508	32	0	
9	0	0	0	0	0	504	510	506	32	0	
10	0	0	0	0	0	505	511	498	31	0	
11	0	0	0	0	0	507	517	497	31	0	
12	0	0	0	0	1	508	516	499	31	0	
13	0	0	0	0	0	504	516	499	31	0	
14	0	0	0	0	0	507	518	507	31	0	
15	0	0	0	0	0	505	515	516	31	0	
0	0	0	0	0	0	502	511	519	32	0	
1	0	0	0	0	0	502	508	519	31	0	
2	0	0	0	0	0	502	511	513	31	0	
3	0	0	0	0	0	504	511	510	31	0	
4	0	0	0	0	1	504	513	508	31	0	
5	0	0	0	0	0	508	508	507	31	0	
6	0	0	0	0	0	507	511	508	31	0	
7	0	0	0	0	0	507	513	510	32	0	
8	0	0	0	0	0	508	512	512	32	0	
9	0	0	0	0	0	506	513	512	32	0	
10	0	0	0	0	0	504	511	510	32	0	
11	0	0	0	0	1	504	512	508	31	0	
12	0	0	0	0	4	504	507	506	31	0	
13	0	0	0	0	0	507	507	505	31	0	
14	0	0	0	0	0	506	512	504	31	0	
15	0	0	0	0	0	506	513	504	31	0	
0	0	0	0	0	0	507	521	510	31	0	
1	0	0	0	0	0	505	513	513	32	0	
2	0	0	0	0	0	505	513	511	32	0	
3	0	0	0	0	1	504	514	512	31	0	
4	0	0	0	0	4	502	515	511	31	0	
5	0	0	0	0	0	504	511	508	31	0	
6	0	0	0	0	0	505	509	507	31	0	
7	0	0	0	0	0	508	511	507	31	0	
8	0	0	0	0	0	507	512	504	31	0	
9	0	0	0	0	0	508	516	511	31	0	
10	0	0	0	0	0	506	514	508	31	0	
11	0	0	0	0	1	504	512	510	31	0	
12	0	0	0	0	4	504	510	511	32	0	
13	0	0	0	0	0	504	511	509	32	0	
14	0	0	0	0	0	504	511	511	32	0	
15	0	0	0	0	0	506	511	510	32	0	
0	0	0	0	0	0	506	511	505	31	0	
1	0	0	0	0	0	507	510	508	31	0	
2	0	0	0	0	0	504	511	513	31	0	
3	0	0	0	0	1	502	512	515	32	0	
4	0	0	0	0	4	503	514	515	31	0	
5	0	0	0	0	0	504	511	513	31	0	
6	0	0	0	0	0	505	510	513	31	0	
7	0	0	0	0	0	504	507	510	31	0	
8	0	0	0	0	0	504	511	506	31	0	
9	0	0	0	0	0	505	513	507	31	0	
10	0	0	0	0	0	505	513	508	31	0	
11	0	0	0	0	0	507	513	507	31	0	
12	0	0	0	0	4	506	512	511	32	0	
13	0	0	0	0	0	507	516	510	32	0	
14	0	0	0	0	0	507	511	508	32	0	
15	0	0	0	0	0	504	509	508	32	0	
0	0	0	0	0	0	505	513	509	32	0	
1	0	0	0	0	0	501	515	509	31	0	
2	0	0	0	0	0	505	519	508	31	0	
3	0	0	0	0	0	507	515	503	31	0	
4	0	0	0	0	4	506	512	504	31	0	
5	0	0	0	0	0	507	512	507	31	0	
6	0	0	0	0	0	504	509	508	31	0	
7	0	0	0	0	0	504	509	508	31	0	
8	0	0	0	0	0	507	510	511	31	0	
9	0	0	0	0	0	506	511	511	32	0	
10	0	0	0	0	0	504	510	518	31	0	
11	0	0	0	0	1	500	509	518	31	0	
12	0	0	0	0	4	502	507	516	31	0	
13	0	0	0	0	0	504	508	513	32	0	
14	0	0	0	0	0	508	508	506	32	0	
15	0	0	0	0	0	509	512	499	32	0	
0	0	0	0	0	0	509	515	497	32	0	
1	0	0	0	0	0	507	518	499	31	0	
2	0	0	0	0	0	509	511	501	31	0	
3	0	0	0	0	1	507	510	498	31	0	
4	0	0	0	0	3	505	511	507	31	0	
5	0	0	0	0	0	503	515	515	31	0	
6	0	0	0	0	0	503	515	521	31	0	
7	0	0	0	0	0	501	511	519	31	0	
8	0	0	0	0	0	503	510	515	31	0	
9	0	0	0	0	0	504	515	509	31	0	
10	0	0	0	0	0	504	514	508	31	0	
11	0	0	0	0	1	504	514	505	32	0	
12	0	0	0	0	4	506	515	508	32	0	
13	0	0	0	0	0	504	515	514	32	0	
14	0	0	0	0	0	506	512	516	32	0	
15	0	0	0	0	0	508	510	516	31	0	
0	0	0	0	0	0	508	513	508	32	0	
1	0	0	0	0	0	504	515	517	32	0	
2	0	0	0	0	0	504	513	514	32	0	
3	0	0	0	0	0	505	512	519	32	0	
4	0	0	0	0	4	507	512	515	32	0	
5	0	0	0	0	0	508	508	510	32	0	
6	0	0	0	0	0	509	513	506	31	0	
7	0	0	0	0	0	506	510	503	31	0	
8	0	0	0	0	0	506	510	499	31	0	
9	0	0	0	0	0	504	514	494	30	0	
10	0	0	0	0	0	503	515	494	30	0	
11	0	0	0	0	1	502	510	499	31	0	
12	0	0	0	0	4	503	508	504	31	0	
13	0	0	0	0	0	502	510	513	31	0	
14	0	0	0	0	0	503	511	515	32	0	
15	0	0	0	0	0	504	510	515	32	0	
0	0	0	0	0	0	504	514	516	31	0	
1	0	0	0	0	0	507	510	516	32	0	
2	0	0	0	0	0	508	510	510	32	0	
3	0	0	0	0	0	508	511	508	31	0	
4	0	0	0	0	2	506	509	507	31	0	
5	0	0	0	0	0	507	510	504	31	0	
6	0	0	0	0	0	508	514	503	31	0	
7	0	0	0	0	0	508	516	501	31	0	
8	0	0	0	0	0	508	515	502	31	0	
9	0	0	0	0	0	503	511	508	31	0	
10	0	0	0	0	0	504	510	509	32	0	
11	0	0	0	0	0	504	511	511	32	0	
12	0	0	0	0	2	501	512	513	31	0	
13	0	0	0	0	0	501	512	515	32	0	
14	0	0	0	0	0	503	514	515	32	0	
15	0	0	0	0	0	507	511	514	31	0	
0	0	0	0	0	0	504	515	511	32	0	
1	0	0	0	0	0	506	513	511	31	0	
2	0	0	0	0	0	507	508	513	31	0	
3	0	0	0	0	0	505	508	512	32	0	
4	0	0	0	0	4	505	509	513	32	0	
5	0	0	0	0	0	506	513	511	32	0	
6	0	0	0	0	0	507	521	509	31	0	
7	0	0	0	0	0	509	520	506	31	0	
8	0	0	0	0	0	507	515	504	31	0	
9	0	0	0	0	0	506	515	504	31	0	
10	0	0	0	0	0	504	513	507	31	0	
11	0	0	0	0	0	504	512	512	31	0	
12	0	0	0	0	4	502	510	514	31	0	
13	0	0	0	0	0	504	510	510	31	0	
14	0	0	0	0	0	503	508	508	32	0	
15	0	0	0	0	0	502	508	508	31	0	
0	0	0	0	0	0	499	509	510	31	0	
1	0	0	0	0	0	505	510	510	31	0	
2	0	0	0	0	0	504	512	513	31	0	
3	0	0	0	0	1	504	512	511	32	0	
4	0	0	0	0	4	509	510	508	32	0	
5	0	0	0	0	0	508	513	510	31	0	
6	0	0	0	0	0	506	513	509	31	0	
7	0	0	0	0	0	506	518	508	31	0	
8	0	0	0	0	0	509	516	505	31	0	
9	0	0	0	0	0	505	513	505	31	0	
10	0	0	0	0	0	506	511	511	31	0	
11	0	0	0	0	0	505	508	511	31	0	
12	0	0	0	0	4	506	511	511	32	0	
13	0	0	0	0	0	505	512	511	32	0	
14	0	0	0	0	0	506	513	508	31	0	
15	0	0	0	0	0	505	513	508	31	0	
0	0	0	0	0	0	504	515	504	31	0	
1	0	0	0	0	0	505	514	502	31	0	
2	0	0	0	0	0	504	514	503	31	0	
3	0	0	0	0	1	502	508	507	31	0	
4	0	0	0	0	4	503	509	510	31	0	
5	0	0	0	0	0	504	511	519	31	0	
6	0	0	0	0	0	504	511	519	31	0	
7	0	0	0	0	0	504	510	516	31	0	
8	0	0	0	0	0	506	509	513	32	0	
9	0	0	0	0	0	505	510	504	31	0	
10	0	0	0	0	0	505	511	503	32	0	
11	0	0	0	0	0	507	507	503	31	0	
12	0	0	0	0	4	504	509	506	32	0	
13	0	0	0	0	0	502	513	508	32	0	
14	0	0	0	0	0	504	517	506	32	0	
15	0	0	0	0	0	508	512	510	32	0	
0	0	0	0	0	0	506	511	512	32	0	
1	0	0	0	0	0	504	515	514	32	0	
2	0	0	0	0	0	506	519	513	31	0	
3	0	0	0	0	0	508	519	506	31	0	
4	0	0	0	0	4	507	514	507	31	0	
5	0	0	0	0	0	507	513	508	31	0	
6	0	0	0	0	0	505	510	507	31	0	
7	0	0	0	0	0	506	511	508	31	0	
8	0	0	0	0	0	505	509	511	31	0	
9	0	0	0	0	0	504	508	510	31	0	
10	0	0	0	0	0	504	508	512	31	0	
11	0	0	0	0	0	503	510	512	32	0	
12	0	0	0	0	4	508	511	515	32	0	
13	0	0	0	0	0	504	511	514	32	0	
14	0	0	0	0	0	505	511	511	32	0	
15	0	0	0	0	0	503	511	509	31	0	
0	0	0	0	0	0	504	513	510	31	0	
1	0	0	0	0	0	504	515	509	31	0	
2	0	0	0	0	0	505	514	510	31	0	
3	0	0	0	0	1	507	512	511	31	0	
4	0	0	0	0	4	508	511	508	31	0	
5	0	0	0	0	0	505	512	507	31	0	
6	0	0	0	0	0	504	512	504	31	0	
7	0	0	0	0	0	506	517	503	31	0	
8	0	0	0	0	0	504	513	504	31	0	
9	0	0	0	0	0	505	509	504	31	0	
10	0	0	0	0	0	506	508	500	31	0	
11	0	0	0	0	1	502	507	505	32	0	
12	0	0	0	0	4	504	505	507	32	0	
13	0	0	0	0	0	503	509	510	32	0	
14	0	0	0	0	0	505	511	511	32	0	
15	0	0	0	0	0	506	516	516	32	0	
0	0	0	0	0	0	509	521	517	32	0	
1	0	0	0	0	0	509	517	514	32	0	
2	0	0	0	0	0	507	515	510	32	0	
3	0	0	0	0	1	502	512	510	31	0	
4	0	0	0	0	4	499	513	513	31	0	
5	0	0	0	0	0	498	509	511	31	0	
6	0	0	0	0	0	499	511	508	31	0	
7	0	0	0	0	0	501	510	511	31	0	
8	0	0	0	0	0	507	508	516	32	0	
9	0	0	0	0	0	507	508	519	32	0	
10	0	0	0	0	0	511	509	508	32	0	
11	0	0	0	0	0	513	516	501	32	0	
12	0	0	0	0	1	511	520	500	31	0	
13	0	0	0	0	0	508	519	507	31	0	
14	0	0	0	0	0	506	519	510	31	0	
15	0	0	0	0	0	507	515	508	31	0	
0	0	0	0	0	0	504	509	510	31	0	
1	0	0	0	0	0	503	502	511	32	0	
2	0	0	0	0	0	499	499	517	32	0	
3	0	0	0	0	0	500	506	523	32	0	
4	0	0	0	0	1	503	512	515	32	0	
5	0	0	0	0	0	507	520	504	31	0	
6	0	0	0	0	0	511	519	498	31	0	
7	0	0	0	0	0	511	513	498	32	0	
8	0	0	0	0	0	512	511	493	32	0	
9	0	0	0	0	0	507	510	495	32	0	
10	0	0	0	0	0	501	508	496	31	0	
11	0	0	0	0	0	497	510	502	31	0	
12	0	0	0	0	1	497	507	508	31	0	
13	0	0	0	0	0	504	507	513	31	0	
14	0	0	0	0	0	504	511	516	31	0	
15	0	0	0	0	0	509	523	515	31	0	
0	0	0	0	0	0	510	529	519	31	0	
1	0	0	0	0	0	504	519	525	31	0	
2	0	0	0	0	0	504	513	523	32	0	
3	0	0	0	0	1	506	508	509	32	0	
4	0	0	0	0	3	504	509	502	31	0	
5	0	0	0	0	0	505	508	507	31	0	
6	0	0	0	0	0	499	508	508	31	0	
7	0	0	0	0	0	503	509	504	31	0	
8	0	0	0	0	0	508	511	505	32	0	
9	0	0	0	0	0	506	509	511	32	0	
10	0	0	0	0	0	507	512	515	33	0	
11	0	0	0	0	1	510	512	516	33	0	
12	0	0	0	0	4	509	510	523	32	0	
13	0	0	0	0	0	505	511	517	32	0	
14	0	0	0	0	0	504	519	508	31	0	
15	0	0	0	0	0	505	527	500	30	0	
0	0	0	0	0	0	510	526	495	29	0	
1	0	0	0	0	0	508	514	490	30	0	
2	0	0	0	0	0	507	507	492	30	0	
3	0	0	0	0	0	506	506	503	31	0	
4	0	0	0	0	4	507	505	512	32	0	
5	0	0	0	0	0	505	509	512	32	0	
6	0	0	0	0	0	507	510	515	32	0	
7	0	0	0	0	0	507	512	521	32	0	
8	0	0	0	0	0	505	511	513	33	0	
9	0	0	0	0	0	508	517	515	33	0	
10	0	0	0	0	0	504	512	542	33	0	
11	0	0	0	0	1	499	513	559	33	0	
12	0	0	0	0	4	501	516	541	31	0	
13	0	0	0	0	0	503	515	511	30	0	
14	0	0	0	0	0	507	514	487	29	0	
15	0	0	0	0	0	511	511	472	29	0	
0	0	0	0	0	0	508	509	460	30	0	
1	0	0	0	0	0	504	506	468	31	0	
2	0	0	0	0	0	500	505	485	32	0	
3	0	0	0	0	1	499	510	504	33	0	
4	0	0	0	0	4	502	512	506	32	0	
5	0	0	0	0	0	504	511	515	32	0	
6	0	0	0	0	0	506	511	515	31	0	
7	0	0	0	0	0	505	510	516	31	0	
8	0	0	0	0	0	500	511	519	31	0	
9	0	0	0	0	0	499	510	519	32	0	
10	0	0	0	0	0	500	513	519	32	0	
11	0	0	0	0	1	499	516	519	31	0	
12	0	0	0	0	3	501	518	519	31	0	
13	0	0	0	0	0	506	515	514	30	0	
14	0	0	0	0	0	508	510	507	30	0	
15	0	0	0	0	0	504	505	506	31	0	
0	0	0	0	0	0	503	505	504	31	0	
1	0	0	0	0	0	506	507	508	31	0	
2	0	0	0	0	0	511	507	508	31	0	
3	0	0	0	0	0	514	509	504	32	0	
4	0	0	0	0	4	516	508	502	32	0	
5	0	0	0	0	0	514	517	507	32	0	
6	0	0	0	0	0	511	521	513	32	0	
7	0	0	0	0	0	504	518	511	32	0	
8	0	0	0	0	0	502	514	521	32	0	
9	0	0	0	0	0	501	514	519	32	0	
10	0	0	0	0	0	504	515	513	31	0	
11	0	0	0	0	0	508	523	508	31	0	
12	0	0	0	0	4	509	518	500	31	0	
13	0	0	0	0	0	505	512	501	32	0	
14	0	0	0	0	0	508	509	511	33	0	
15	0	0	0	0	0	504	510	515	32	0	
0	0	0	0	0	0	502	513	515	32	0	
1	0	0	0	0	0	502	514	515	31	0	
2	0	0	0	0	0	506	515	511	30	0	
3	0	0	0	0	1	506	511	514	30	0	
4	0	0	0	0	4	504	505	512	30	0	
5	0	0	0	0	0	503	508	506	31	0	
6	0	0	0	0	0	503	509	498	31	0	
7	0	0	0	0	0	501	512	497	32	0	
8	0	0	0	0	0	501	515	507	32	0	
9	0	0	0	0	0	504	512	506	33	0	
10	0	0	0	0	0	512	511	508	32	0	
11	0	0	0	0	1	511	512	507	31	0	
12	0	0	0	0	4	506	513	509	30	0	
13	0	0	0	0	0	510	513	515	30	0	
14	0	0	0	0	0	507	511	519	30	0	
15	0	0	0	0	0	501	500	513	31	0	
0	0	0	0	0	0	500	505	504	31	0	
1	0	0	0	0	0	496	506	502	31	0	
2	0	0	0	0	0	498	516	502	32	0	
3	0	0	0	0	1	496	518	501	32	0	
4	0	0	0	0	4	499	515	505	32	0	
5	0	0	0	0	0	503	512	507	32	0	
6	0	0	0	0	0	507	513	505	31	0	
7	0	0	0	0	0	510	513	504	31	0	
8	0	0	0	0	0	506	505	509	31	0	
9	0	0	0	0	0	511	504	509	31	0	
10	0	0	0	0	0	511	511	508	31	0	
11	0	0	0	0	0	514	520	507	31	0	
12	0	0	0	0	2	509	515	519	32	0	
13	0	0	0	0	0	504	515	521	32	0	
14	0	0	0	0	0	504	519	522	31	0	
15	0	0	0	0	0	504	518	517	31	0	
0	0	0	0	0	0	505	515	512	32	0	
1	0	0	0	0	0	508	515	510	32	0	
2	0	0	0	0	0	506	512	512	31	0	
3	0	0	0	0	0	503	507	509	32	0	
4	0	0	0	0	2	500	510	508	32	0	
5	0	0	0	0	0	498	512	511	32	0	
6	0	0	0	0	0	499	513	518	32	0	
7	0	0	0	0	0	504	514	514	32	0	
8	0	0	0	0	0	506	511	510	31	0	
9	0	0	0	0	0	507	511	504	31	0	
10	0	0	0	0	0	512	510	501	31	0	
11	0	0	0	0	0	510	508	496	31	0	
12	0	0	0	0	2	503	505	492	30	0	
13	0	0	0	0	0	504	510	493	31	0	
14	0	0	0	0	0	504	510	499	31	0	
15	0	0	0	0	0	502	507	508	31	0	
0	0	0	0	0	0	503	506	516	31	0	
1	0	0	0	0	0	505	512	517	32	0	
2	0	0	0	0	0	506	515	520	32	0	
3	0	0	0	0	1	508	518	525	32	0	
4	0	0	0	0	3	506	515	525	32	0	
5	0	0	0	0	0	504	515	517	32	0	
6	0	0	0	0	0	504	512	519	32	0	
7	0	0	0	0	0	503	511	515	32	0	
8	0	0	0	0	0	504	512	507	32	0	
9	0	0	0	0	0	511	522	505	31	0	
10	0	0	0	0	0	513	526	508	30	0	
11	0	0	0	0	1	506	515	523	31	0	
12	0	0	0	0	4	504	510	518	31	0	
13	0	0	0	0	0	505	511	517	32	0	
14	0	0	0	0	0	506	517	510	32	0	
15	0	0	0	0	0	508	513	504	32	0	
0	0	0	0	0	0	508	512	493	31	0	
1	0	0	0	0	0	506	510	486	31	0	
2	0	0	0	0	0	504	511	487	30	0	
3	0	0	0	0	0	504	508	489	30	0	
4	0	0	0	0	4	505	503	499	30	0	
5	0	0	0	0	0	501	503	502	31	0	
6	0	0	0	0	0	503	507	507	31	0	
7	0	0	0	0	0	502	508	509	32	0	
8	0	0	0	0	0	503	507	512	32	0	
9	0	0	0	0	0	504	515	511	32	0	
10	0	0	0	0	0	508	517	515	32	0	
11	0	0	0	0	0	511	519	512	31	0	
12	0	0	0	0	4	511	516	507	31	0	
13	0	0	0	0	0	507	515	512	31	0	
14	0	0	0	0	0	499	510	519	31	0	
15	0	0	0	0	0	501	510	519	31	0	
0	0	0	0	0	0	502	507	520	32	0	
1	0	0	0	0	0	506	509	515	31	0	
2	0	0	0	0	0	508	508	504	31	0	
3	0	0	0	0	0	508	510	501	31	0	
4	0	0	0	0	4	507	509	507	31	0	
5	0	0	0	0	0	502	512	514	32	0	
6	0	0	0	0	0	499	516	517	32	0	
7	0	0	0	0	0	500	510	519	32	0	
8	0	0	0	0	0	502	509	520	32	0	
9	0	0	0	0	0	505	510	514	32	0	
10	0	0	0	0	0	508	514	508	31	0	
11	0	0	0	0	0	507	514	508	31	0	
12	0	0	0	0	4	505	514	507	31	0	
13	0	0	0	0	0	504	507	505	31	0	
14	0	0	0	0	0	504	507	505	32	0	
15	0	0	0	0	0	505	510	506	31	0	
0	0	0	0	0	0	506	512	502	31	0	
1	0	0	0	0	0	510	515	495	31	0	
2	0	0	0	0	0	512	515	501	31	0	
3	0	0	0	0	1	510	520	510	31	0	
4	0	0	0	0	4	505	519	510	31	0	
5	0	0	0	0	0	504	517	512	32	0	
6	0	0	0	0	0	504	515	513	32	0	
7	0	0	0	0	0	501	512	507	32	0	
8	0	0	0	0	0	503	511	503	31	0	
9	0	0	0	0	0	507	513	497	31	0	
10	0	0	0	0	0	511	511	502	31	0	
11	0	0	0	0	1	510	514	505	31	0	
12	0	0	0	0	4	503	514	515	31	0	
13	0	0	0	0	0	499	514	521	32	0	
14	0	0	0	0	0	500	508	527	32	0	
15	0	0	0	0	0	504	506	524	32	0	
0	0	0	0	0	0	507	509	517	32	0	
1	0	0	0	0	0	502	507	515	32	0	
2	0	0	0	0	0	498	508	511	31	0	
3	0	0	0	0	0	500	510	513	31	0	
4	0	0	0	0	4	506	516	515	31	0	
5	0	0	0	0	0	510	516	511	31	0	
6	0	0	0	0	0	511	515	506	31	0	
7	0	0	0	0	0	511	513	505	31	0	
8	0	0	0	0	0	510	512	508	31	0	
9	0	0	0	0	0	505	511	508	32	0	
10	0	0	0	0	0	506	513	505	31	0	
11	0	0	0	0	0	507	510	504	32	0	
12	0	0	0	0	4	503	510	503	31	0	
13	0	0	0	0	0	497	508	507	31	0	
14	0	0	0	0	0	499	512	508	31	0	
15	0	0	0	0	0	504	507	506	31	0	
0	0	0	0	0	0	507	506	503	32	0	
1	0	0	0	0	0	509	512	505	31	0	
2	0	0	0	0	0	510	513	510	31	0	
3	0	0	0	0	1	512	515	509	31	0	
4	0	0	0	0	1	505	515	509	31	0	
5	0	0	0	0	0	503	510	507	31	0	
6	0	0	0	0	0	497	509	511	31	0	
7	0	0	0	0	0	502	511	510	31	0	
8	0	0	0	0	0	504	512	507	31	0	
9	0	0	0	0	0	507	514	507	31	0	
10	0	0	0	0	0	509	512	507	31	0	
11	0	0	0	0	0	507	511	508	31	0	
12	0	0	0	0	1	503	509	509	31	0	
13	0	0	0	0	0	503	508	507	31	0	
14	0	0	0	0	0	504	511	508	31	0	
15	0	0	0	0	0	504	514	512	31	0	
0	0	0	0	0	0	504	513	518	32	0	
1	0	0	0	0	0	507	513	512	31	0	
2	0	0	0	0	0	509	517	508	31	0	
3	0	0	0	0	0	508	516	507	31	0	
4	0	0	0	0	1	509	513	506	31	0	
5	0	0	0	0	0	505	513	509	32	0	
6	0	0	0	0	0	505	512	512	32	0	
7	0	0	0	0	0	503	510	515	32	0	
8	0	0	0	0	0	504	512	517	32	0	
9	0	0	0	0	0	504	510	515	31	0	
10	0	0	0	0	0	502	509	509	32	0	
11	0	0	0	0	1	501	508	509	31	0	
12	0	0	0	0	4	502	508	510	31	0	
13	0	0	0	0	0	502	508	511	31	0	
14	0	0	0	0	0	504	515	508	31	0	
15	0	0	0	0	0	506	511	507	31	0	
0	0	0	0	0	0	506	509	508	31	0	
1	0	0	0	0	0	506	508	508	31	0	
2	0	0	0	0	0	508	512	507	31	0	
3	0	0	0	0	1	509	515	504	31	0	
4	0	0	0	0	4	509	515	504	31	0	
5	0	0	0	0	0	508	514	504	31	0	
6	0	0	0	0	0	507	511	503	31	0	
7	0	0	0	0	0	507	511	504	31	0	
8	0	0	0	0	0	504	513	508	31	0	
9	0	0	0	0	0	505	512	506	31	0	
10	0	0	0	0	0	502	510	507	31	0	
11	0	0	0	0	1	502	514	511	31	0	
12	0	0	0	0	4	505	515	513	31	0	
13	0	0	0	0	0	507	515	515	31	0	
14	0	0	0	0	0	506	509	518	32	0	
15	0	0	0	0	0	506	510	514	32	0	
0	0	0	0	0	0	506	510	511	31	0	
1	0	0	0	0	0	505	514	509	31	0	
2	0	0	0	0	0	506	516	507	32	0	
3	0	0	0	0	1	504	515	504	31	0	
4	0	0	0	0	4	505	515	507	31	0	
5	0	0	0	0	0	506	512	508	31	0	
6	0	0	0	0	0	504	510	510	31	0	
7	0	0	0	0	0	502	508	517	32	0	
8	0	0	0	0	0	502	508	519	32	0	
9	0	0	0	0	0	503	510	519	32	0	
10	0	0	0	0	0	504	513	515	32	0	
11	0	0	0	0	0	504	513	511	31	0	
12	0	0	0	0	4	507	515	509	31	0	
13	0	0	0	0	0	504	511	507	31	0	
14	0	0	0	0	0	505	511	505	31	0	
15	0	0	0	0	0	505	513	507	31	0	
0	0	0	0	0	0	507	511	508	31	0	
1	0	0	0	0	0	504	508	507	31	0	
2	0	0	0	0	0	504	509	504	31	0	
3	0	0	0	0	1	509	512	505	31	0	
4	0	0	0	0	4	508	513	505	31	0	
5	0	0	0	0	0	507	514	505	31	0	
6	0	0	0	0	0	507	512	506	31	0	
7	0	0	0	0	0	505	511	509	31	0	
8	0	0	0	0	0	504	510	509	31	0	
9	0	0	0	0	0	504	513	511	31	0	
10	0	0	0	0	0	505	513	509	32	0	
11	0	0	0	0	0	504	509	509	31	0	
12	0	0	0	0	4	503	510	504	31	0	
13	0	0	0	0	0	504	510	509	31	0	
14	0	0	0	0	0	505	512	509	31	0	
15	0	0	0	0	0	503	513	508	31	0	
0	0	0	0	0	0	505	514	509	31	0	
1	0	0	0	0	0	506	515	505	31	0	
2	0	0	0	0	0	505	514	508	31	0	
3	0	0	0	0	1	504	510	509	31	0	
4	0	0	0	0	4	505	512	515	31	0	
5	0	0	0	0	0	506	514	515	31	0	
6	0	0	0	0	0	507	515	512	31	0	
7	0	0	0	0	0	508	512	511	31	0	
8	0	0	0	0	0	509	513	504	31	0	
9	0	0	0	0	0	507	511	504	31	0	
10	0	0	0	0	0	505	513	508	31	0	
11	0	0	0	0	1	506	511	508	31	0	
12	0	0	0	0	4	507	511	509	31	0	
13	0	0	0	0	0	504	512	510	31	0	
14	0	0	0	0	0	505	511	509	31	0	
15	0	0	0	0	0	504	510	504	31	0	
0	0	0	0	0	0	499	509	508	31	0	
1	0	0	0	0	0	499	511	509	31	0	
2	0	0	0	0	0	502	511	512	31	0	
3	0	0	0	0	1	501	511	517	32	0	
4	0	0	0	0	4	502	508	514	31	0	
5	0	0	0	0	0	507	508	508	31	0	
6	0	0	0	0	0	506	507	505	32	0	
7	0	0	0	0	0	508	511	505	31	0	
8	0	0	0	0	0	510	515	504	31	0	
9	0	0	0	0	0	509	518	508	31	0	
10	0	0	0	0	0	508	513	514	31	0	
11	0	0	0	0	0	508	515	512	32	0	
12	0	0	0	0	4	504	514	511	31	0	
13	0	0	0	0	0	505	512	508	31	0	
14	0	0	0	0	0	506	510	508	31	0	
15	0	0	0	0	0	507	512	506	31	0	
0	0	0	0	0	0	508	516	509	31	0	
1	0	0	0	0	0	505	512	510	31	0	
2	0	0	0	0	0	502	511	509	31	0	
3	0	0	0	0	0	503	510	512	31	0	
4	0	0	0	0	2	502	511	511	31	0	
5	0	0	0	0	0	501	510	508	31	0	
6	0	0	0	0	0	503	509	509	31	0	
7	0	0	0	0	0	503	510	511	31	0	
8	0	0	0	0	0	506	512	509	31	0	
9	0	0	0	0	0	505	515	506	31	0	
10	0	0	0	0	0	506	513	500	31	0	
11	0	0	0	0	0	506	511	500	31	0	
12	0	0	0	0	2	508	512	508	31	0	
13	0	0	0	0	0	506	511	508	32	0	
14	0	0	0	0	0	507	512	512	32	0	
15	0	0	0	0	0	508	512	511	32	0	
0	0	0	0	0	0	504	511	514	32	0	
1	0	0	0	0	0	504	510	521	32	0	
2	0	0	0	0	0	503	510	520	32	0	
3	0	0	0	0	0	503	508	513	32	0	
4	0	0	0	0	2	504	512	507	31	0	
5	0	0	0	0	0	505	515	503	31	0	
6	0	0	0	0	0	504	515	501	31	0	
7	0	0	0	0	0	503	510	503	31	0	
8	0	0	0	0	0	504	508	503	31	0	
9	0	0	0	0	0	505	507	511	31	0	
10	0	0	0	0	0	505	511	515	31	0	
11	0	0	0	0	1	504	517	512	31	0	
12	0	0	0	0	4	508	513	508	31	0	
13	0	0	0	0	0	507	511	510	32	0	
14	0	0	0	0	0	508	513	517	32	0	
15	0	0	0	0	0	511	516	516	32	0	
0	0	0	0	0	0	510	516	515	32	0	
1	0	0	0	0	0	508	514	510	31	0	
2	0	0	0	0	0	506	515	500	31	0	
3	0	0	0	0	0	508	516	496	31	0	
4	0	0	0	0	3	507	515	504	31	0	
5	0	0	0	0	0	504	510	504	31	0	
6	0	0	0	0	0	504	508	502	31	0	
7	0	0	0	0	0	502	511	508	32	0	
8	0	0	0	0	0	505	512	511	32	0	
9	0	0	0	0	0	504	512	520	32	0	
10	0	0	0	0	0	508	509	516	32	0	
11	0	0	0	0	1	505	513	512	31	0	
12	0	0	0	0	4	502	515	510	32	0	
13	0	0	0	0	0	505	518	503	32	0	
14	0	0	0	0	0	503	514	500	31	0	
15	0	0	0	0	0	503	511	506	31	0	
0	0	0	0	0	0	503	509	516	31	0	
1	0	0	0	0	0	500	506	518	31	0	
2	0	0	0	0	0	503	505	515	31	0	
3	0	0	0	0	1	505	508	515	31	0	
4	0	0	0	0	4	505	508	513	32	0	
5	0	0	0	0	0	510	512	507	32	0	
6	0	0	0	0	0	511	512	494	31	0	
7	0	0	0	0	0	511	514	491	31	0	
8	0	0	0	0	0	508	514	492	31	0	
9	0	0	0	0	0	503	515	503	31	0	
10	0	0	0	0	0	501	509	504	31	0	
11	0	0	0	0	1	502	509	508	31	0	
12	0	0	0	0	4	506	509	514	31	0	
13	0	0	0	0	0	503	509	516	31	0	
14	0	0	0	0	0	504	510	515	31	0	
15	0	0	0	0	0	508	512	509	31	0	
0	0	0	0	0	0	507	510	505	31	0	
1	0	0	0	0	0	504	507	508	31	0	
2	0	0	0	0	0	501	510	510	32	0	
3	0	0	0	0	0	502	515	511	32	0	
4	0	0	0	0	4	503	515	514	32	0	
5	0	0	0	0	0	502	518	515	32	0	
6	0	0	0	0	0	504	512	516	32	0	
7	0	0	0	0	0	502	509	514	32	0	
8	0	0	0	0	0	506	510	514	31	0	
9	0	0	0	0	0	506	512	511	31	0	
10	0	0	0	0	0	508	515	520	31	0	
11	0	0	0	0	1	507	515	537	32	0	
12	0	0	0	0	4	506	514	532	32	0	
13	0	0	0	0	0	506	516	514	33	0	
14	0	0	0	0	0	509	518	511	32	0	
15	0	0	0	0	0	510	516	507	32	0	
0	0	0	0	0	0	508	517	491	31	0	
1	0	0	0	0	0	504	512	483	31	0	
2	0	0	0	0	0	504	515	486	30	0	
3	0	0	0	0	1	505	510	485	31	0	
4	0	0	0	0	4	505	513	501	31	0	
5	0	0	0	0	0	506	511	512	32	0	
6	0	0	0	0	0	505	511	512	33	0	
7	0	0	0	0	0	503	515	512	32	0	
8	0	0	0	0	0	504	516	510	32	0	
9	0	0	0	0	0	508	514	503	30	0	
10	0	0	0	0	0	511	513	496	29	0	
11	0	0	0	0	1	506	511	498	29	0	
12	0	0	0	0	4	504	504	499	30	0	
13	0	0	0	0	0	503	503	506	31	0	
14	0	0	0	0	0	503	505	514	32	0	
15	0	0	0	0	0	504	511	522	32	0	
0	0	0	0	0	0	504	514	523	33	0	
1	0	0	0	0	0	504	515	527	33	0	
2	0	0	0	0	0	506	512	530	33	0	
3	0	0	0	0	1	502	512	523	32	0	
4	0	0	0	0	4	503	512	518	31	0	
5	0	0	0	0	0	503	512	511	30	0	
6	0	0	0	0	0	504	511	503	30	0	
7	0	0	0	0	0	509	511	497	30	0	
8	0	0	0	0	0	509	512	495	31	0	
9	0	0	0	0	0	504	513	492	31	0	
10	0	0	0	0	0	505	513	500	31	0	
11	0	0	0	0	1	505	515	508	32	0	
12	0	0	0	0	4	506	516	513	31	0	
13	0	0	0	0	0	508	516	515	31	0	
14	0	0	0	0	0	508	513	515	31	0	
15	0	0	0	0	0	504	513	518	32	0	
0	0	0	0	0	0	506	510	513	32	0	
1	0	0	0	0	0	505	513	509	32	0	
2	0	0	0	0	0	504	512	510	32	0	
3	0	0	0	0	0	505	512	513	32	0	
4	0	0	0	0	1	504	510	509	32	0	
5	0	0	0	0	0	505	510	506	31	0	
6	0	0	0	0	0	504	510	512	31	0	
7	0	0	0	0	0	503	510	512	31	0	
8	0	0	0	0	0	506	512	510	31	0	
9	0	0	0	0	0	505	514	512	31	0	
10	0	0	0	0	0	504	516	513	31	0	
11	0	0	0	0	0	501	511	513	32	0	
12	0	0	0	0	1	501	510	512	32	0	
13	0	0	0	0	0	504	509	507	32	0	
14	0	0	0	0	0	504	510	503	31	0	
15	0	0	0	0	0	504	511	506	31	0	
0	0	0	0	0	0	507	512	503	31	0	
1	0	0	0	0	0	511	512	505	31	0	
2	0	0	0	0	0	506	512	507	31	0	
3	0	0	0	0	0	505	512	512	31	0	
4	0	0	0	0	1	506	511	509	31	0	
5	0	0	0	0	0	507	514	505	31	0	
6	0	0	0	0	0	508	513	506	31	0	
7	0	0	0	0	0	505	512	505	31	0	
8	0	0	0	0	0	502	513	505	32	0	
9	0	0	0	0	0	504	510	507	32	0	
10	0	0	0	0	0	505	513	510	32	0	
11	0	0	0	0	1	505	513	515	32	0	
12	0	0	0	0	4	505	510	517	32	0	
13	0	0	0	0	0	504	512	513	31	0	
14	0	0	0	0	0	507	514	510	31	0	
15	0	0	0	0	0	508	513	509	31	0	
0	0	0	0	0	0	508	512	508	31	0	
1	0	0	0	0	0	504	512	511	31	0	
2	0	0	0	0	0	504	514	508	31	0	
3	0	0	0	0	1	504	514	506	31	0	
4	0	0	0	0	4	503	510	504	31	0	
5	0	0	0	0	0	502	511	506	32	0	
6	0	0	0	0	0	500	512	509	32	0	
7	0	0	0	0	0	499	512	512	32	0	
8	0	0	0	0	0	504	511	516	31	0	
9	0	0	0	0	0	507	510	515	31	0	
10	0	0	0	0	0	508	510	507	31	0	
11	0	0	0	0	0	508	511	504	31	0	
12	0	0	0	0	4	508	513	504	31	0	
13	0	0	0	0	0	508	512	506	31	0	
14	0	0	0	0	0	506	513	507	31	0	
15	0	0	0	0	0	505	513	509	31	0	
0	0	0	0	0	0	505	513	509	31	0	
1	0	0	0	0	0	503	513	512	31	0	
2	0	0	0	0	0	502	510	515	31	0	
3	0	0	0	0	1	500	511	516	32	0	
4	0	0	0	0	4	504	512	516	32	0	
5	0	0	0	0	0	506	512	512	32	0	
6	0	0	0	0	0	505	515	512	32	0	
7	0	0	0	0	0	505	513	507	31	0	
8	0	0	0	0	0	503	512	504	31	0	
9	0	0	0	0	0	504	510	508	31	0	
10	0	0	0	0	0	505	510	510	31	0	
11	0	0	0	0	0	507	509	511	31	0	
12	0	0	0	0	4	512	511	511	31	0	
13	0	0	0	0	0	509	511	505	31	0	
14	0	0	0	0	0	508	510	505	31	0	
15	0	0	0	0	0	505	511	502	31	0	
0	0	0	0	0	0	504	514	504	31	0	
1	0	0	0	0	0	502	514	506	31	0	
2	0	0	0	0	0	503	513	506	31	0	
3	0	0	0	0	1	505	514	509	31	0	
4	0	0	0	0	4	504	514	510	31	0	
5	0	0	0	0	0	504	511	511	31	0	
6	0	0	0	0	0	505	510	514	32	0	
7	0	0	0	0	0	504	511	511	32	0	
8	0	0	0	0	0	504	511	513	32	0	
9	0	0	0	0	0	504	512	510	31	0	
10	0	0	0	0	0	504	512	510	31	0	
11	0	0	0	0	1	505	512	512	31	0	
12	0	0	0	0	4	506	512	510	31	0	
13	0	0	0	0	0	507	513	509	31	0	
14	0	0	0	0	0	507	513	509	31	0	
15	0	0	0	0	0	508	513	508	31	0	
0	0	0	0	0	0	505	512	511	31	0	
1	0	0	0	0	0	504	512	511	31	0	
2	0	0	0	0	0	506	513	511	31	0	
3	0	0	0	0	0	505	510	513	31	0	
4	0	0	0	0	4	505	515	511	31	0	
5	0	0	0	0	0	507	511	508	31	0	
6	0	0	0	0	0	506	508	510	32	0	
7	0	0	0	0	0	504	510	510	32	0	
8	0	0	0	0	0	504	513	509	31	0	
9	0	0	0	0	0	506	513	504	31	0	
10	0	0	0	0	0	507	512	500	31	0	
11	0	0	0	0	1	506	513	504	31	0	
12	0	0	0	0	4	504	512	507	31	0	
13	0	0	0	0	0	504	511	505	31	0	
14	0	0	0	0	0	504	511	508	31	0	
15	0	0	0	0	0	505	511	512	31	0	
0	0	0	0	0	0	505	512	513	32	0	
1	0	0	0	0	0	505	513	512	31	0	
2	0	0	0	0	0	504	516	509	32	0	
3	0	0	0	0	1	504	512	507	31	0	
4	0	0	0	0	4	506	512	507	32	0	
5	0	0	0	0	0	504	511	505	32	0	
6	0	0	0	0	0	504	511	508	31	0	
7	0	0	0	0	0	504	512	511	31	0	
8	0	0	0	0	0	503	512	512	31	0	
9	0	0	0	0	0	504	512	509	31	0	
10	0	0	0	0	0	505	510	509	31	0	
11	0	0	0	0	1	509	513	511	31	0	
12	0	0	0	0	2	508	513	512	31	0	
13	0	0	0	0	0	505	511	508	31	0	
14	0	0	0	0	0	504	510	509	32	0	
15	0	0	0	0	0	504	511	508	32	0	
0	0	0	0	0	0	504	513	509	32	0	
1	0	0	0	0	0	503	512	510	32	0	
2	0	0	0	0	0	504	513	512	32	0	
3	0	0	0	0	0	506	514	511	31	0	
4	0	0	0	0	2	506	515	513	31	0	
5	0	0	0	0	0	506	514	515	31	0	
6	0	0	0	0	0	507	512	512	31	0	
7	0	0	0	0	0	503	511	509	31	0	
8	0	0	0	0	0	505	510	510	31	0	
9	0	0	0	0	0	504	510	512	31	0	
10	0	0	0	0	0	504	512	508	31	0	
11	0	0	0	0	0	505	512	505	31	0	
12	0	0	0	0	2	505	514	507	31	0	
13	0	0	0	0	0	508	518	511	31	0	
14	0	0	0	0	0	505	514	507	31	0	
15	0	0	0	0	0	506	512	508	31	0	
0	0	0	0	0	0	506	515	504	32	0	
1	0	0	0	0	0	508	514	505	31	0	
2	0	0	0	0	0	506	513	508	31	0	
3	0	0	0	0	1	507	513	503	31	0	
4	0	0	0	0	4	505	511	502	31	0	
5	0	0	0	0	0	506	510	505	31	0	
6	0	0	0	0	0	507	510	505	31	0	
7	0	0	0	0	0	505	509	504	31	0	
8	0	0	0	0	0	503	510	511	32	0	
9	0	0	0	0	0	502	511	512	32	0	
10	0	0	0	0	0	503	511	512	32	0	
11	0	0	0	0	1	503	510	512	32	0	
12	0	0	0	0	4	503	510	514	32	0	
13	0	0	0	0	0	503	512	514	32	0	
14	0	0	0	0	0	506	516	510	32	0	
15	0	0	0	0	0	506	513	511	32	0	
0	0	0	0	0	0	506	513	511	31	0	
1	0	0	0	0	0	506	511	515	31	0	
2	0	0	0	0	0	506	510	514	31	0	
3	0	0	0	0	1	508	507	512	31	0	
4	0	0	0	0	4	508	510	511	31	0	
5	0	0	0	0	0	505	512	510	31	0	
6	0	0	0	0	0	505	511	505	31	0	
7	0	0	0	0	0	505	513	501	31	0	
8	0	0	0	0	0	505	512	504	31	0	
9	0	0	0	0	0	502	513	506	31	0	
10	0	0	0	0	0	502	519	504	31	0	
11	0	0	0	0	0	506	519	502	31	0	
12	0	0	0	0	4	506	514	508	31	0	
13	0	0	0	0	0	505	511	507	32	0	
14	0	0	0	0	0	503	510	511	31	0	
15	0	0	0	0	0	505	512	510	32	0	
0	0	0	0	0	0	504	514	507	31	0	
1	0	0	0	0	0	506	510	511	31	0	
2	0	0	0	0	0	505	513	519	31	0	
3	0	0	0	0	1	505	513	513	31	0	
4	0	0	0	0	4	504	512	511	31	0	
5	0	0	0	0	0	502	510	510	31	0	
6	0	0	0	0	0	502	512	506	31	0	
7	0	0	0	0	0	504	515	505	31	0	
8	0	0	0	0	0	504	512	507	31	0	
9	0	0	0	0	0	503	510	512	31	0	
10	0	0	0	0	0	507	506	513	31	0	
11	0	0	0	0	0	507	508	514	31	0	
12	0	0	0	0	4	508	509	513	32	0	
13	0	0	0	0	0	506	511	513	32	0	
14	0	0	0	0	0	507	510	510	31	0	
15	0	0	0	0	0	506	514	509	31	0	
0	0	0	0	0	0	506	514	510	32	0	
1	0	0	0	0	0	505	513	508	31	0	
2	0	0	0	0	0	504	515	508	31	0	
3	0	0	0	0	1	504	512	507	31	0	
4	0	0	0	0	4	505	512	507	31	0	
5	0	0	0	0	0	506	512	504	31	0	
6	0	0	0	0	0	505	513	502	31	0	
7	0	0	0	0	0	507	514	505	32	0	
8	0	0	0	0	0	503	512	509	32	0	
9	0	0	0	0	0	504	512	512	31	0	
10	0	0	0	0	0	504	511	512	32	0	
11	0	0	0	0	1	504	511	510	32	0	
12	0	0	0	0	3	504	511	511	31	0	
13	0	0	0	0	0	507	512	509	31	0	
14	0	0	0	0	0	506	513	508	31	0	
15	0	0	0	0	0	505	513	507	31	0	
0	0	0	0	0	0	504	512	507	31	0	
1	0	0	0	0	0	502	512	510	31	0	
2	0	0	0	0	0	505	511	510	31	0	
3	0	0	0	0	1	502	511	509	31	0	
4	0	0	0	0	4	506	513	512	31	0	
5	0	0	0	0	0	507	511	509	31	0	
6	0	0	0	0	0	507	513	510	31	0	
7	0	0	0	0	0	505	513	508	31	0	
8	0	0	0	0	0	507	512	508	31	0	
9	0	0	0	0	0	503	512	513	31	0	
10	0	0	0	0	0	505	514	511	32	0	
11	0	0	0	0	0	506	513	511	32	0	
12	0	0	0	0	4	507	512	508	31	0	
13	0	0	0	0	0	503	512	508	31	0	
14	0	0	0	0	0	505	511	509	31	0	
15	0	0	0	0	0	506	510	508	32	0	
0	0	0	0	0	0	506	509	510	32	0	
1	0	0	0	0	0	505	513	508	31	0	
2	0	0	0	0	0	505	512	508	31	0	
3	0	0	0	0	1	505	511	507	31	0	
4	0	0	0	0	4	503	510	508	31	0	
5	0	0	0	0	0	505	511	505	31	0	
6	0	0	0	0	0	504	512	507	31	0	
7	0	0	0	0	0	504	512	509	31	0	
8	0	0	0	0	0	504	512	509	31	0	
9	0	0	0	0	0	506	514	509	31	0	
10	0	0	0	0	0	505	512	507	31	0	
11	0	0	0	0	0	508	512	512	31	0	
12	0	0	0	0	1	504	511	511	31	0	
13	0	0	0	0	0	505	510	511	31	0	
14	0	0	0	0	0	505	508	509	31	0	
15	0	0	0	0	0	508	512	510	31	0	
0	0	0	0	0	0	507	511	512	31	0	
1	0	0	0	0	0	505	510	510	31	0	
2	0	0	0	0	0	503	511	508	31	0	
3	0	0	0	0	0	503	510	508	31	0	
4	0	0	0	0	1	502	512	513	31	0	
5	0	0	0	0	0	502	512	511	31	0	
6	0	0	0	0	0	503	513	508	32	0	
7	0	0	0	0	0	503	514	505	31	0	
8	0	0	0	0	0	505	513	507	31	0	
9	0	0	0	0	0	506	513	507	31	0	
10	0	0	0	0	0	505	512	508	31	0	
11	0	0	0	0	0	505	512	511	31	0	
12	0	0	0	0	1	505	513	511	31	0	
13	0	0	0	0	0	505	512	508	31	0	
14	0	0	0	0	0	504	512	506	31	0	
15	0	0	0	0	0	507	514	507	31	0	
0	0	0	0	0	0	505	515	509	31	0	
1	0	0	0	0	0	505	513	510	31	0	
2	0	0	0	0	0	505	511	508	31	0	
3	0	0	0	0	0	505	509	510	31	0	
4	0	0	0	0	4	507	510	511	31	0	
5	0	0	0	0	0	505	510	514	32	0	
6	0	0	0	0	0	505	512	512	32	0	
7	0	0	0	0	0	503	510	516	31	0	
8	0	0	0	0	0	505	513	509	32	0	
9	0	0	0	0	0	507	513	508	31	0	
10	0	0	0	0	0	505	512	508	31	0	
11	0	0	0	0	0	504	511	508	31	0	
12	0	0	0	0	4	501	512	511	31	0	
13	0	0	0	0	0	501	512	511	32	0	
14	0	0	0	0	0	502	513	509	31	0	
15	0	0	0	0	0	505	513	505	31	0	
0	0	0	0	0	0	507	515	510	31	0	
1	0	0	0	0	0	508	514	506	31	0	
2	0	0	0	0	0	510	513	507	31	0	
3	0	0	0	0	1	508	511	507	32	0	
4	0	0	0	0	4	508	514	510	31	0	
5	0	0	0	0	0	508	514	510	31	0	
6	0	0	0	0	0	507	513	510	31	0	
7	0	0	0	0	0	504	513	510	31	0	
8	0	0	0	0	0	504	513	508	31	0	
9	0	0	0	0	0	504	511	509	31	0	
10	0	0	0	0	0	504	510	509	31	0	
11	0	0	0	0	1	504	510	516	31	0	
12	0	0	0	0	4	503	512	518	31	0	
13	0	0	0	0	0	503	514	513	31	0	
14	0	0	0	0	0	505	514	508	31	0	
15	0	0	0	0	0	505	514	507	31	0	
0	0	0	0	0	0	504	510	508	31	0	
1	0	0	0	0	0	504	508	512	31	0	
2	0	0	0	0	0	505	509	509	31	0	
3	0	0	0	0	1	502	512	506	31	0	
4	0	0	0	0	4	507	511	503	31	0	
5	0	0	0	0	0	506	513	500	32	0	
6	0	0	0	0	0	508	515	500	32	0	
7	0	0	0	0	0	507	512	499	31	0	
8	0	0	0	0	0	505	514	502	31	0	
9	0	0	0	0	0	506	512	505	31	0	
10	0	0	0	0	0	503	514	509	31	0	
11	0	0	0	0	0	506	513	511	31	0	
12	0	0	0	0	4	506	511	513	31	0	
13	0	0	0	0	0	505	510	513	31	0	
14	0	0	0	0	0	503	511	515	32	0	
15	0	0	0	0	0	503	511	513	31	0	
0	0	0	0	0	0	502	511	515	32	0	
1	0	0	0	0	0	504	510	515	31	0	
2	0	0	0	0	0	504	511	513	31	0	
3	0	0	0	0	1	504	513	511	31	0	
4	0	0	0	0	4	503	510	513	31	0	
5	0	0	0	0	0	505	513	510	31	0	
6	0	0	0	0	0	507	511	509	31	0	
7	0	0	0	0	0	508	514	505	31	0	
8	0	0	0	0	0	508	515	508	32	0	
9	0	0	0	0	0	505	512	505	32	0	
10	0	0	0	0	0	506	512	506	31	0	
11	0	0	0	0	0	505	514	510	31	0	
12	0	0	0	0	4	504	511	510	31	0	
13	0	0	0	0	0	505	513	508	31	0	
14	0	0	0	0	0	505	513	510	31	0	
15	0	0	0	0	0	504	511	511	31	0	
0	0	0	0	0	0	505	513	509	32	0	
1	0	0	0	0	0	504	510	510	32	0	
2	0	0	0	0	0	507	512	515	32	0	
3	0	0	0	0	1	506	511	516	32	0	
4	0	0	0	0	4	508	512	512	31	0	
5	0	0	0	0	0	507	513	508	31	0	
6	0	0	0	0	0	507	513	507	31	0	
7	0	0	0	0	0	508	513	505	31	0	
8	0	0	0	0	0	507	512	506	31	0	
9	0	0	0	0	0	506	512	503	31	0	
10	0	0	0	0	0	505	513	501	31	0	
11	0	0	0	0	1	506	513	505	31	0	
12	0	0	0	0	3	506	512	508	31	0	
13	0	0	0	0	0	508	512	510	31	0	
14	0	0	0	0	0	507	515	511	31	0	
15	0	0	0	0	0	504	515	510	31	0	
0	0	0	0	0	0	506	514	510	31	0	
1	0	0	0	0	0	504	512	510	31	0	
2	0	0	0	0	0	504	512	513	32	0	
3	0	0	0	0	1	504	511	511	31	0	
4	0	0	0	0	4	504	512	510	31	0	
5	0	0	0	0	0	506	513	510	31	0	
6	0	0	0	0	0	507	509	507	31	0	
7	0	0	0	0	0	509	510	506	31	0	
8	0	0	0	0	0	505	510	505	31	0	
9	0	0	0	0	0	504	510	508	31	0	
10	0	0	0	0	0	505	511	508	31	0	
11	0	0	0	0	0	506	513	513	31	0	
12	0	0	0	0	2	504	510	515	31	0	
13	0	0	0	0	0	503	512	514	32	0	
14	0	0	0	0	0	503	511	510	31	0	
15	0	0	0	0	0	507	512	512	31	0	
0	0	0	0	0	0	504	511	508	32	0	
1	0	0	0	0	0	503	510	507	31	0	
2	0	0	0	0	0	505	506	508	32	0	
3	0	0	0	0	0	504	510	512	32	0	
4	0	0	0	0	2	504	514	505	31	0	
5	0	0	0	0	0	507	515	506	32	0	
6	0	0	0	0	0	504	517	509	31	0	
7	0	0	0	0	0	505	518	507	31	0	
8	0	0	0	0	0	507	516	507	31	0	
9	0	0	0	0	0	507	513	508	31	0	
10	0	0	0	0	0	507	513	507	31	0	
11	0	0	0	0	0	504	511	507	31	0	
12	0	0	0	0	4	505	507	508	31	0	
13	0	0	0	0	0	505	510	509	31	0	
14	0	0	0	0	0	504	509	508	32	0	
15	0	0	0	0	0	502	510	507	32	0	
0	0	0	0	0	0	505	512	512	31	0	
1	0	0	0	0	0	505	510	515	31	0	
2	0	0	0	0	0	504	511	511	31	0	
3	0	0	0	0	0	505	512	509	31	0	
4	0	0	0	0	4	505	514	509	31	0	
5	0	0	0	0	0	505	514	505	31	0	
6	0	0	0	0	0	504	512	503	31	0	
7	0	0	0	0	0	507	514	505	31	0	
8	0	0	0	0	0	504	512	507	31	0	
9	0	0	0	0	0	503	511	510	31	0	
10	0	0	0	0	0	503	511	512	31	0	
11	0	0	0	0	0	503	512	513	31	0	
12	0	0	0	0	4	502	510	514	31	0	
13	0	0	0	0	0	503	512	513	32	0	
14	0	0	0	0	0	505	513	511	31	0	
15	0	0	0	0	0	507	511	512	32	0	
0	0	0	0	0	0	509	516	512	32	0	
1	0	0	0	0	0	509	514	510	32	0	
2	0	0	0	0	0	508	515	510	32	0	
3	0	0	0	0	0	507	511	511	32	0	
4	0	0	0	0	4	505	509	509	32	0	
5	0	0	0	0	0	505	511	508	32	0	
6	0	0	0	0	0	506	510	509	31	0	
7	0	0	0	0	0	506	513	508	31	0	
8	0	0	0	0	0	510	514	507	31	0	
9	0	0	0	0	0	504	516	510	31	0	
10	0	0	0	0	0	505	515	510	31	0	
11	0	0	0	0	0	504	513	511	31	0	
12	0	0	0	0	4	505	511	511	31	0	
13	0	0	0	0	0	502	513	513	31	0	
14	0	0	0	0	0	503	512	512	32	0	
15	0	0	0	0	0	507	512	503	31	0	
0	0	0	0	0	0	504	511	505	31	0	
1	0	0	0	0	0	507	512	509	31	0	
2	0	0	0	0	0	506	512	511	31	0	
3	0	0	0	0	1	505	513	509	31	0	
4	0	0	0	0	4	508	514	511	31	0	
5	0	0	0	0	0	506	512	510	31	0	
6	0	0	0	0	0	506	513	508	31	0	
7	0	0	0	0	0	506	513	506	31	0	
8	0	0	0	0	0	505	510	508	31	0	
9	0	0	0	0	0	503	512	508	31	0	
10	0	0	0	0	0	502	511	508	31	0	
11	0	0	0	0	1	504	510	507	31	0	
12	0	0	0	0	4	503	510	508	31	0	
13	0	0	0	0	0	503	510	512	31	0	
14	0	0	0	0	0	502	510	509	32	0	
15	0	0	0	0	0	504	510	513	32	0	
0	0	0	0	0	0	504	511	512	31	0	
1	0	0	0	0	0	506	513	513	31	0	
2	0	0	0	0	0	506	513	512	31	0	
3	0	0	0	0	0	504	514	513	31	0	
4	0	0	0	0	4	503	512	510	31	0	
5	0	0	0	0	0	505	511	508	31	0	
6	0	0	0	0	0	505	513	508	31	0	
7	0	0	0	0	0	506	515	508	32	0	
8	0	0	0	0	0	508	514	508	31	0	
9	0	0	0	0	0	508	511	505	31	0	
10	0	0	0	0	0	507	509	502	31	0	
11	0	0	0	0	1	508	512	510	31	0	
12	0	0	0	0	4	506	512	512	32	0	
13	0	0	0	0	0	508	513	511	31	0	
14	0	0	0	0	0	505	511	506	31	0	
15	0	0	0	0	0	508	510	507	31	0	
0	0	0	0	0	0	506	512	505	31	0	
1	0	0	0	0	0	507	511	505	31	0	
2	0	0	0	0	0	507	511	505	31	0	
3	0	0	0	0	0	505	512	507	31	0	
4	0	0	0	0	4	502	510	504	31	0	
5	0	0	0	0	0	504	513	508	32	0	
6	0	0	0	0	0	502	510	512	31	0	
7	0	0	0	0	0	504	513	510	31	0	
8	0	0	0	0	0	504	513	508	32	0	
9	0	0	0	0	0	506	513	508	32	0	
10	0	0	0	0	0	504	512	509	32	0	
11	0	0	0	0	1	502	512	513	32	0	
12	0	0	0	0	4	505	513	512	32	0	
13	0	0	0	0	0	506	511	512	31	0	
14	0	0	0	0	0	504	511	512	32	0	
15	0	0	0	0	0	504	512	512	32	0	
0	0	0	0	0	0	504	512	515	31	0	
1	0	0	0	0	0	506	513	512	31	0	
2	0	0	0	0	0	508	513	507	31	0	
3	0	0	0	0	1	506	512	508	32	0	
4	0	0	0	0	1	506	515	510	32	0	
5	0	0	0	0	0	505	514	508	32	0	
6	0	0	0	0	0	504	510	511	32	0	
7	0	0	0	0	0	504	510	509	32	0	
8	0	0	0	0	0	504	507	511	31	0	
9	0	0	0	0	0	504	510	512	31	0	
10	0	0	0	0	0	504	512	507	30	0	
11	0	0	0	0	0	508	513	505	31	0	
12	0	0	0	0	1	508	514	508	31	0	
13	0	0	0	0	0	507	512	510	31	0	
14	0	0	0	0	0	506	511	510	32	0	
15	0	0	0	0	0	504	511	510	32	0	
0	0	0	0	0	0	504	512	508	32	0	
1	0	0	0	0	0	504	513	508	32	0	
2	0	0	0	0	0	504	512	508	32	0	
3	0	0	0	0	0	504	512	508	31	0	
4	0	0	0	0	1	502	512	506	31	0	
5	0	0	0	0	0	505	510	510	31	0	
6	0	0	0	0	0	504	511	512	31	0	
7	0	0	0	0	0	507	510	508	31	0	
8	0	0	0	0	0	508	508	508	32	0	
9	0	0	0	0	0	509	511	508	31	0	
10	0	0	0	0	0	506	513	507	31	0	
11	0	0	0	0	0	507	511	508	31	0	
12	0	0	0	0	4	508	512	508	31	0	
13	0	0	0	0	0	507	514	507	31	0	
14	0	0	0	0	0	505	512	508	31	0	
15	0	0	0	0	0	502	514	511	31	0	
0	0	0	0	0	0	500	514	512	31	0	
1	0	0	0	0	0	503	511	511	31	0	
2	0	0	0	0	0	503	511	509	31	0	
3	0	0	0	0	1	505	513	509	32	0	
4	0	0	0	0	4	505	514	508	31	0	
5	0	0	0	0	0	504	512	507	31	0	
6	0	0	0	0	0	504	511	510	31	0	
7	0	0	0	0	0	506	509	509	31	0	
8	0	0	0	0	0	504	511	508	31	0	
9	0	0	0	0	0	506	510	509	31	0	
10	0	0	0	0	0	506	511	511	32	0	
11	0	0	0	0	1	504	512	510	31	0	
12	0	0	0	0	4	505	513	508	31	0	
13	0	0	0	0	0	504	514	511	31	0	
14	0	0	0	0	0	506	515	512	31	0	
15	0	0	0	0	0	506	516	511	31	0	
0	0	0	0	0	0	505	513	510	31	0	
1	0	0	0	0	0	502	511	510	31	0	
2	0	0	0	0	0	502	512	510	31	0	
3	0	0	0	0	1	504	513	509	31	0	
4	0	0	0	0	4	505	513	507	31	0	
5	0	0	0	0	0	507	511	504	31	0	
6	0	0	0	0	0	507	511	507	31	0	
7	0	0	0	0	0	506	511	509	31	0	
8	0	0	0	0	0	505	512	509	31	0	
9	0	0	0	0	0	505	516	510	31	0	
10	0	0	0	0	0	504	515	509	31	0	
11	0	0	0	0	1	505	512	512	31	0	
12	0	0	0	0	4	504	511	511	31	0	
13	0	0	0	0	0	504	510	510	31	0	
14	0	0	0	0	0	504	510	508	31	0	
15	0	0	0	0	0	507	512	509	31	0	
0	0	0	0	0	0	508	513	508	31	0	
1	0	0	0	0	0	507	514	509	31	0	
2	0	0	0	0	0	507	514	508	31	0	
3	0	0	0	0	1	505	511	509	31	0	
4	0	0	0	0	4	507	513	511	31	0	
5	0	0	0	0	0	505	512	513	31	0	
6	0	0	0	0	0	507	514	513	31	0	
7	0	0	0	0	0	504	512	507	31	0	
8	0	0	0	0	0	506	512	506	32	0	
9	0	0	0	0	0	505	511	510	31	0	
10	0	0	0	0	0	506	511	511	31	0	
11	0	0	0	0	1	506	511	508	31	0	
12	0	0	0	0	4	505	512	510	31	0	
13	0	0	0	0	0	506	513	509	32	0	
14	0	0	0	0	0	505	511	507	31	0	
15	0	0	0	0	0	507	511	507	31	0	
0	0	0	0	0	0	504	512	504	32	0	
1	0	0	0	0	0	502	513	505	31	0	
2	0	0	0	0	0	503	515	510	31	0	
3	0	0	0	0	0	502	512	510	31	0	
4	0	0	0	0	4	501	511	509	31	0	
5	0	0	0	0	0	501	510	509	31	0	
6	0	0	0	0	0	504	512	508	31	0	
7	0	0	0	0	0	503	511	510	31	0	
8	0	0	0	0	0	504	508	511	31	0	
9	0	0	0	0	0	508	511	512	31	0	
10	0	0	0	0	0	505	512	508	31	0	
11	0	0	0	0	0	506	515	507	31	0	
12	0	0	0	0	3	506	513	511	31	0	
13	0	0	0	0	0	508	513	510	32	0	
14	0	0	0	0	0	505	512	510	31	0	
15	0	0	0	0	0	507	511	510	31	0	
0	0	0	0	0	0	508	514	510	31	0	
1	0	0	0	0	0	506	515	508	31	0	
2	0	0	0	0	0	505	514	507	31	0	
3	0	0	0	0	1	508	512	504	31	0	
4	0	0	0	0	4	506	512	507	31	0	
5	0	0	0	0	0	505	511	507	31	0	
6	0	0	0	0	0	504	511	511	31	0	
7	0	0	0	0	0	504	512	511	31	0	
8	0	0	0	0	0	505	510	511	31	0	
9	0	0	0	0	0	505	510	508	31	0	
10	0	0	0	0	0	504	513	507	31	0	
11	0	0	0	0	1	505	515	507	31	0	
12	0	0	0	0	4	504	515	508	31	0	
13	0	0	0	0	0	504	511	508	31	0	
14	0	0	0	0	0	505	509	511	31	0	
15	0	0	0	0	0	507	512	510	31	0	
0	0	0	0	0	0	505	509	511	31	0	
1	0	0	0	0	0	505	511	512	31	0	
2	0	0	0	0	0	506	511	513	31	0	
3	0	0	0	0	0	505	511	511	31	0	
4	0	0	0	0	2	505	514	507	31	0	
5	0	0	0	0	0	507	513	508	32	0	
6	0	0	0	0	0	507	512	509	31	0	
7	0	0	0	0	0	504	513	511	31	0	
8	0	0	0	0	0	504	514	512	31	0	
9	0	0	0	0	0	505	512	511	31	0	
10	0	0	0	0	0	504	513	509	31	0	
11	0	0	0	0	0	505	511	507	31	0	
12	0	0	0	0	2	504	512	508	31	0	
13	0	0	0	0	0	504	512	510	32	0	
14	0	0	0	0	0	505	511	511	31	0	
15	0	0	0	0	0	504	513	513	32	0	
0	0	0	0	0	0	503	513	512	31	0	
1	0	0	0	0	0	505	513	512	31	0	
2	0	0	0	0	0	507	512	508	31	0	
3	0	0	0	0	0	507	511	503	31	0	
4	0	0	0	0	2	506	512	503	31	0	
5	0	0	0	0	0	505	511	505	31	0	
6	0	0	0	0	0	504	512	506	31	0	
7	0	0	0	0	0	505	512	508	31	0	
8	0	0	0	0	0	505	512	508	31	0	
9	0	0	0	0	0	504	510	508	31	0	
10	0	0	0	0	0	504	512	511	31	0	
11	0	0	0	0	1	504	513	511	31	0	
12	0	0	0	0	4	504	511	510	31	0	
13	0	0	0	0	0	506	512	508	31	0	
14	0	0	0	0	0	505	512	510	31	0	
15	0	0	0	0	0	504	511	512	31	0	
0	0	0	0	0	0	506	512	507	31	0	
1	0	0	0	0	0	508	512	508	31	0	
2	0	0	0	0	0	507	512	508	31	0	
3	0	0	0	0	1	504	511	509	32	0	
4	0	0	0	0	4	504	511	511	31	0	
5	0	0	0	0	0	504	511	510	32	0	
6	0	0	0	0	0	506	512	510	31	0	
7	0	0	0	0	0	504	513	513	31	0	
8	0	0	0	0	0	507	515	511	31	0	
9	0	0	0	0	0	504	515	509	31	0	
10	0	0	0	0	0	504	513	508	31	0	
11	0	0	0	0	1	504	514	508	31	0	
12	0	0	0	0	3	505	515	508	31	0	
13	0	0	0	0	0	504	513	507	31	0	
14	0	0	0	0	0	505	510	504	31	0	
15	0	0	0	0	0	507	511	508	31	0	
0	0	0	0	0	0	505	509	512	32	0	
1	0	0	0	0	0	506	511	511	31	0	
2	0	0	0	0	0	505	515	509	31	0	
3	0	0	0	0	0	508	512	510	31	0	
4	0	0	0	0	4	505	513	508	31	0	
5	0	0	0	0	0	506	513	509	31	0	
6	0	0	0	0	0	508	512	506	31	0	
7	0	0	0	0	0	507	512	507	31	0	
8	0	0	0	0	0	505	510	511	31	0	
9	0	0	0	0	0	504	509	510	31	0	
10	0	0	0	0	0	505	510	510	31	0	
11	0	0	0	0	0	505	510	508	31	0	
12	0	0	0	0	4	503	512	509	31	0	
13	0	0	0	0	0	504	514	510	32	0	
14	0	0	0	0	0	503	512	511	31	0	
15	0	0	0	0	0	505	512	508	31	0	
0	0	0	0	0	0	504	511	512	31	0	
1	0	0	0	0	0	503	510	511	31	0	
2	0	0	0	0	0	504	513	508	31	0	
3	0	0	0	0	1	507	512	507	31	0	
4	0	0	0	0	4	506	513	507	31	0	
5	0	0	0	0	0	505	511	506	31	0	
6	0	0	0	0	0	504	512	510	31	0	
7	0	0	0	0	0	505	512	511	32	0	
8	0	0	0	0	0	506	511	510	31	0	
9	0	0	0	0	0	505	510	508	31	0	
10	0	0	0	0	0	504	511	509	31	0	
11	0	0	0	0	1	507	513	512	31	0	
12	0	0	0	0	4	506	514	512	31	0	
13	0	0	0	0	0	507	516	509	31	0	
14	0	0	0	0	0	508	515	507	31	0	
15	0	0	0	0	0	507	513	509	31	0	
0	0	0	0	0	0	504	515	512	31	0	
1	0	0	0	0	0	504	512	512	31	0	
2	0	0	0	0	0	507	514	510	31	0	
3	0	0	0	0	1	504	512	508	31	0	
4	0	0	0	0	4	505	512	510	31	0	
5	0	0	0	0	0	504	510	511	31	0	
6	0	0	0	0	0	506	510	511	32	0	
7	0	0	0	0	0	507	508	508	31	0	
8	0	0	0	0	0	506	508	511	31	0	
9	0	0	0	0	0	504	512	511	31	0	
10	0	0	0	0	0	504	515	509	31	0	
11	0	0	0	0	1	504	511	509	31	0	
12	0	0	0	0	3	503	512	508	31	0	
13	0	0	0	0	0	503	510	505	32	0	
14	0	0	0	0	0	503	510	509	32	0	
15	0	0	0	0	0	504	510	512	32	0	
0	0	0	0	0	0	504	513	510	31	0	
1	0	0	0	0	0	505	514	509	31	0	
2	0	0	0	0	0	507	511	508	31	0	
3	0	0	0	0	0	505	512	510	31	0	
4	0	0	0	0	4	504	511	510	31	0	
5	0	0	0	0	0	504	511	508	31	0	
6	0	0	0	0	0	507	512	508	31	0	
7	0	0	0	0	0	507	515	508	31	0	
8	0	0	0	0	0	508	513	506	31	0	
9	0	0	0	0	0	508	515	505	31	0	
10	0	0	0	0	0	505	512	505	31	0	
11	0	0	0	0	1	505	512	506	31	0	
12	0	0	0	0	4	504	511	508	31	0	
13	0	0	0	0	0	503	512	509	31	0	
14	0	0	0	0	0	504	513	510	31	0	
15	0	0	0	0	0	504	512	510	31	0	
0	0	0	0	0	0	505	512	513	32	0	
1	0	0	0	0	0	506	509	511	31	0	
2	0	0	0	0	0	509	510	511	31	0	
3	0	0	0	0	0	508	511	512	31	0	
4	0	0	0	0	1	507	512	510	31	0	
5	0	0	0	0	0	508	510	510	32	0	
6	0	0	0	0	0	505	510	507	32	0	
7	0	0	0	0	0	504	510	508	31	0	
8	0	0	0	0	0	504	511	508	32	0	
9	0	0	0	0	0	506	513	510	31	0	
10	0	0	0	0	0	505	516	508	31	0	
11	0	0	0	0	0	506	514	508	31	0	
12	0	0	0	0	1	506	514	507	31	0	
13	0	0	0	0	0	503	516	508	31	0	
14	0	0	0	0	0	503	514	508	31	0	
15	0	0	0	0	0	504	511	510	31	0	
0	0	0	0	0	0	504	510	512	31	0	
1	0	0	0	0	0	504	510	514	31	0	
2	0	0	0	0	0	504	510	511	31	0	
3	0	0	0	0	0	505	511	510	31	0	
4	0	0	0	0	4	504	512	510	31	0	
5	0	0	0	0	0	505	512	510	31	0	
6	0	0	0	0	0	504	513	510	31	0	
7	0	0	0	0	0	506	513	508	31	0	
8	0	0	0	0	0	506	514	507	31	0	
9	0	0	0	0	0	507	513	506	31	0	
10	0	0	0	0	0	506	515	506	31	0	
11	0	0	0	0	0	504	513	509	31	0	
12	0	0	0	0	4	504	514	510	31	0	
13	0	0	0	0	0	505	513	510	31	0	
14	0	0	0	0	0	504	513	511	31	0	
15	0	0	0	0	0	505	511	511	31	0	
0	0	0	0	0	0	506	510	509	31	0	
1	0	0	0	0	0	507	512	508	32	0	
2	0	0	0	0	0	504	510	506	31	0	
3	0	0	0	0	1	507	509	507	31	0	
4	0	0	0	0	4	507	513	504	31	0	
5	0	0	0	0	0	504	510	505	31	0	
6	0	0	0	0	0	505	513	511	31	0	
7	0	0	0	0	0	504	513	511	31	0	
8	0	0	0	0	0	503	512	509	31	0	
9	0	0	0	0	0	503	510	508	31	0	
10	0	0	0	0	0	504	511	509	31	0	
11	0	0	0	0	1	504	511	510	32	0	
12	0	0	0	0	4	503	512	509	31	0	
13	0	0	0	0	0	504	512	509	31	0	
14	0	0	0	0	0	505	510	510	31	0	
15	0	0	0	0	0	505	512	508	31	0	
0	0	0	0	0	0	507	511	510	31	0	
1	0	0	0	0	0	504	512	511	31	0	
2	0	0	0	0	0	504	512	511	31	0	
3	0	0	0	0	1	504	509	512	32	0	
4	0	0	0	0	4	505	511	511	31	0	
5	0	0	0	0	0	505	512	507	31	0	
6	0	0	0	0	0	507	513	507	31	0	
7	0	0	0	0	0	506	515	510	31	0	
8	0	0	0	0	0	507	511	509	31	0	
9	0	0	0	0	0	508	513	510	31	0	
10	0	0	0	0	0	506	512	510	31	0	
11	0	0	0	0	1	505	511	509	31	0	
12	0	0	0	0	4	507	512	508	31	0	
13	0	0	0	0	0	505	512	504	31	0	
14	0	0	0	0	0	504	512	508	31	0	
15	0	0	0	0	0	504	513	510	31	0	
0	0	0	0	0	0	504	512	509	32	0	
1	0	0	0	0	0	504	512	511	31	0	
2	0	0	0	0	0	504	512	511	32	0	
3	0	0	0	0	0	504	513	509	31	0	
4	0	0	0	0	4	506	512	508	31	0	
5	0	0	0	0	0	506	509	509	31	0	
6	0	0	0	0	0	507	510	509	31	0	
7	0	0	0	0	0	505	509	507	31	0	
8	0	0	0	0	0	508	509	508	32	0	
9	0	0	0	0	0	505	510	512	32	0	
10	0	0	0	0	0	503	511	513	31	0	
11	0	0	0	0	0	504	515	511	31	0	
12	0	0	0	0	4	505	516	510	31	0	
13	0	0	0	0	0	503	516	507	31	0	
14	0	0	0	0	0	504	516	508	31	0	
15	0	0	0	0	0	505	515	509	31	0	
0	0	0	0	0	0	506	512	507	31	0	
1	0	0	0	0	0	506	512	509	31	0	
2	0	0	0	0	0	505	513	508	31	0	
3	0	0	0	0	0	507	510	508	31	0	
4	0	0	0	0	4	507	512	509	31	0	
5	0	0	0	0	0	509	511	508	31	0	
6	0	0	0	0	0	506	509	509	31	0	
7	0	0	0	0	0	508	511	509	31	0	
8	0	0	0	0	0	505	512	506	31	0	
9	0	0	0	0	0	504	512	510	31	0	
10	0	0	0	0	0	504	511	511	32	0	
11	0	0	0	0	1	505	512	512	32	0	
12	0	0	0	0	4	504	511	511	31	0	
13	0	0	0	0	0	504	511	512	32	0	
14	0	0	0	0	0	506	512	511	31	0	
15	0	0	0	0	0	505	512	511	31	0	
0	0	0	0	0	0	503	515	511	31	0	
1	0	0	0	0	0	503	515	509	31	0	
2	0	0	0	0	0	505	514	504	31	0	
3	0	0	0	0	1	505	513	502	31	0	
4	0	0	0	0	4	505	512	503	31	0	
5	0	0	0	0	0	504	511	504	31	0	
6	0	0	0	0	0	504	509	506	31	0	
7	0	0	0	0	0	507	509	508	32	0	
8	0	0	0	0	0	508	512	509	31	0	
9	0	0	0	0	0	508	511	512	32	0	
10	0	0	0	0	0	505	510	514	32	0	
11	0	0	0	0	0	504	510	513	32	0	
12	0	0	0	0	2	503	510	512	32	0	
13	0	0	0	0	0	504	513	511	31	0	
14	0	0	0	0	0	504	512	510	31	0	
15	0	0	0	0	0	507	513	506	31	0	
0	0	0	0	0	0	507	513	506	31	0	
1	0	0	0	0	0	507	513	509	32	0	
2	0	0	0	0	0	505	514	508	31	0	
3	0	0	0	0	0	507	513	510	31	0	
4	0	0	0	0	2	503	512	510	31	0	
5	0	0	0	0	0	500	511	510	31	0	
6	0	0	0	0	0	504	512	514	31	0	
7	0	0	0	0	0	505	511	512	31	0	
8	0	0	0	0	0	505	511	508	31	0	
9	0	0	0	0	0	505	513	509	31	0	
10	0	0	0	0	0	505	513	508	31	0	
11	0	0	0	0	0	507	512	508	31	0	
12	0	0	0	0	2	507	513	506	31	0	
13	0	0	0	0	0	508	514	506	31	0	
14	0	0	0	0	0	507	512	506	31	0	
15	0	0	0	0	0	506	512	509	31	0	
0	0	0	0	0	0	504	510	510	31	0	
1	0	0	0	0	0	504	510	509	31	0	
2	0	0	0	0	0	504	511	509	31	0	
3	0	0	0	0	1	503	512	510	31	0	
4	0	0	0	0	4	504	511	512	31	0	
5	0	0	0	0	0	506	512	510	31	0	
6	0	0	0	0	0	506	511	510	31	0	
7	0	0	0	0	0	505	512	509	31	0	
8	0	0	0	0	0	506	510	510	32	0	
9	0	0	0	0	0	504	512	507	31	0	
10	0	0	0	0	0	505	512	508	32	0	
11	0	0	0	0	1	505	513	509	31	0	
12	0	0	0	0	4	504	514	510	31	0	
13	0	0	0	0	0	503	512	509	31	0	
14	0	0	0	0	0	503	513	509	31	0	
15	0	0	0	0	0	506	514	510	31	0	
0	0	0	0	0	0	504	512	512	31	0	
1	0	0	0	0	0	504	511	510	31	0	
2	0	0	0	0	0	507	513	507	31	0	
3	0	0	0	0	0	507	515	506	31	0	
4	0	0	0	0	4	507	514	505	31	0	
5	0	0	0	0	0	505	512	505	31	0	
6	0	0	0	0	0	504	512	505	31	0	
7	0	0	0	0	0	507	512	511	31	0	
8	0	0	0	0	0	506	512	511	31	0	
9	0	0	0	0	0	505	510	511	31	0	
10	0	0	0	0	0	504	511	512	32	0	
11	0	0	0	0	0	506	512	512	31	0	
12	0	0	0	0	4	504	513	509	31	0	
13	0	0	0	0	0	506	514	511	31	0	
14	0	0	0	0	0	505	513	511	31	0	
15	0	0	0	0	0	502	511	510	31	0	
0	0	0	0	0	0	502	511	508	31	0	
1	0	0	0	0	0	503	510	508	31	0	
2	0	0	0	0	0	502	512	510	31	0	
3	0	0	0	0	0	504	512	510	31	0	
4	0	0	0	0	4	507	513	509	31	0	
5	0	0	0	0	0	507	512	507	31	0	
6	0	0	0	0	0	507	513	510	31	0	
7	0	0	0	0	0	508	514	507	31	0	
8	0	0	0	0	0	509	511	508	31	0	
9	0	0	0	0	0	508	513	506	31	0	
10	0	0	0	0	0	506	512	504	31	0	
11	0	0	0	0	0	505	511	508	31	0	
12	0	0	0	0	3	506	510	508	31	0	
13	0	0	0	0	0	505	510	512	31	0	
14	0	0	0	0	0	504	511	513	31	0	
15	0	0	0	0	0	504	512	512	31	0	
0	0	0	0	0	0	503	513	509	31	0	
1	0	0	0	0	0	502	511	508	31	0	
2	0	0	0	0	0	503	511	510	31	0	
3	0	0	0	0	0	502	513	509	31	0	
4	0	0	0	0	3	505	512	509	31	0	
5	0	0	0	0	0	504	512	508	32	0	
6	0	0	0	0	0	503	512	511	31	0	
7	0	0	0	0	0	506	513	508	31	0	
8	0	0	0	0	0	506	512	508	31	0	
9	0	0	0	0	0	508	512	506	31	0	
10	0	0	0	0	0	507	512	506	31	0	
11	0	0	0	0	0	506	513	507	31	0	
12	0	0	0	0	4	506	513	505	31	0	
13	0	0	0	0	0	505	512	510	31	0	
14	0	0	0	0	0	504	511	511	31	0	
15	0	0	0	0	0	502	512	512	31	0	
0	0	0	0	0	0	504	513	511	31	0	
1	0	0	0	0	0	504	509	512	32	0	
2	0	0	0	0	0	505	513	511	32	0	
3	0	0	0	0	0	504	513	510	32	0	
4	0	0	0	0	4	504	512	510	32	0	
5	0	0	0	0	0	505	511	509	31	0	
6	0	0	0	0	0	507	512	509	31	0	
7	0	0	0	0	0	509	513	507	31	0	
8	0	0	0	0	0	508	513	508	31	0	
9	0	0	0	0	0	506	514	508	31	0	
10	0	0	0	0	0	505	512	510	31	0	
11	0	0	0	0	1	508	511	509	31	0	
12	0	0	0	0	4	506	513	510	31	0	
13	0	0	0	0	0	504	514	507	32	0	
14	0	0	0	0	0	504	513	509	31	0	
15	0	0	0	0	0	505	513	510	31	0	
0	0	0	0	0	0	505	513	511	31	0	
1	0	0	0	0	0	505	510	509	31	0	
2	0	0	0	0	0	504	509	507	31	0	
3	0	0	0	0	1	504	508	511	31	0	
4	0	0	0	0	4	503	510	511	32	0	
5	0	0	0	0	0	502	511	512	31	0	
6	0	0	0	0	0	503	513	508	31	0	
7	0	0	0	0	0	503	515	510	31	0	
8	0	0	0	0	0	504	514	509	31	0	
9	0	0	0	0	0	504	513	509	32	0	
10	0	0	0	0	0	505	513	509	31	0	
11	0	0	0	0	0	503	511	508	31	0	
12	0	0	0	0	1	506	512	511	31	0	
13	0	0	0	0	0	507	514	506	31	0	
14	0	0	0	0	0	507	513	510	31	0	
15	0	0	0	0	0	507	515	509	31	0	
0	0	0	0	0	0	507	514	507	31	0	
1	0	0	0	0	0	508	513	510	31	0	
2	0	0	0	0	0	505	511	510	31	0	
3	0	0	0	0	0	506	509	508	31	0	
4	0	0	0	0	1	504	509	511	31	0	
5	0	0	0	0	0	503	509	512	32	0	
6	0	0	0	0	0	504	510	507	32	0	
7	0	0	0	0	0	504	510	508	32	0	
8	0	0	0	0	0	508	511	508	31	0	
9	0	0	0	0	0	507	512	507	31	0	
10	0	0	0	0	0	506	514	508	31	0	
11	0	0	0	0	0	506	514	509	31	0	
12	0	0	0	0	1	504	513	509	31	0	
13	0	0	0	0	0	504	511	505	31	0	
14	0	0	0	0	0	504	511	510	31	0	
15	0	0	0	0	0	504	512	511	31	0	
0	0	0	0	0	0	505	512	512	31	0	
1	0	0	0	0	0	505	512	510	31	0	
2	0	0	0	0	0	505	513	511	32	0	
3	0	0	0	0	1	507	514	513	32	0	
4	0	0	0	0	4	508	514	511	31	0	
5	0	0	0	0	0	505	512	506	31	0	
6	0	0	0	0	0	506	511	507	31	0	
7	0	0	0	0	0	505	512	504	31	0	
8	0	0	0	0	0	506	512	504	31	0	
9	0	0	0	0	0	506	513	505	31	0	
10	0	0	0	0	0	504	513	511	31	0	
11	0	0	0	0	1	506	512	512	31	0	
12	0	0	0	0	4	504	513	511	31	0	
13	0	0	0	0	0	506	513	510	31	0	
14	0	0	0	0	0	505	513	507	31	0	
15	0	0	0	0	0	507	513	508	31	0	
0	0	0	0	0	0	503	511	512	31	0	
1	0	0	0	0	0	504	512	511	32	0	
2	0	0	0	0	0	500	509	510	31	0	
3	0	0	0	0	1	502	508	511	31	0	
4	0	0	0	0	4	505	510	510	31	0	
5	0	0	0	0	0	504	511	508	31	0	
6	0	0	0	0	0	507	512	506	31	0	
7	0	0	0	0	0	508	513	505	31	0	
8	0	0	0	0	0	506	511	508	31	0	
9	0	0	0	0	0	505	511	510	31	0	
10	0	0	0	0	0	504	514	513	31	0	
11	0	0	0	0	1	506	513	513	32	0	
12	0	0	0	0	4	506	515	514	31	0	
13	0	0	0	0	0	505	512	515	32	0	
14	0	0	0	0	0	506	511	511	31	0	
15	0	0	0	0	0	505	510	511	31	0	
0	0	0	0	0	0	507	511	507	31	0	
1	0	0	0	0	0	505	511	503	31	0	
2	0	0	0	0	0	505	510	503	31	0	
3	0	0	0	0	1	504	512	504	31	0	
4	0	0	0	0	4	503	511	508	31	0	
5	0	0	0	0	0	503	511	509	31	0	
6	0	0	0	0	0	504	510	512	31	0	
7	0	0	0	0	0	506	509	508	31	0	
8	0	0	0	0	0	507	514	507	31	0	
9	0	0	0	0	0	505	515	509	31	0	
10	0	0	0	0	0	505	514	511	31	0	
11	0	0	0	0	0	505	512	508	31	0	
12	0	0	0	0	4	506	511	508	31	0	
13	0	0	0	0	0	505	512	511	31	0	
14	0	0	0	0	0	504	511	511	32	0	
15	0	0	0	0	0	507	513	511	31	0	
0	0	0	0	0	0	507	513	510	31	0	
1	0	0	0	0	0	507	513	510	31	0	
2	0	0	0	0	0	508	514	510	31	0	
3	0	0	0	0	1	510	513	508	31	0	
4	0	0	0	0	4	506	515	507	31	0	
5	0	0	0	0	0	505	511	510	31	0	
6	0	0	0	0	0	504	512	510	32	0	
7	0	0	0	0	0	503	512	510	32	0	
8	0	0	0	0	0	504	512	513	32	0	
9	0	0	0	0	0	504	511	512	32	0	
10	0	0	0	0	0	501	512	513	31	0	
11	0	0	0	0	0	503	511	511	31	0	
12	0	0	0	0	4	504	510	513	31	0	
13	0	0	0	0	0	503	511	512	31	0	
14	0	0	0	0	0	504	513	506	31	0	
15	0	0	0	0	0	505	508	504	31	0	
0	0	0	0	0	0	510	513	499	31	0	
1	0	0	0	0	0	510	513	498	31	0	
2	0	0	0	0	0	508	512	497	31	0	
3	0	0	0	0	1	505	512	504	31	0	
4	0	0	0	0	4	504	513	507	31	0	
5	0	0	0	0	0	505	512	511	31	0	
6	0	0	0	0	0	505	511	513	31	0	
7	0	0	0	0	0	505	511	512	31	0	
8	0	0	0	0	0	502	510	513	31	0	
9	0	0	0	0	0	502	510	519	32	0	
10	0	0	0	0	0	503	514	519	31	0	
11	0	0	0	0	0	504	511	517	32	0	
12	0	0	0	0	4	504	512	512	32	0	
13	0	0	0	0	0	504	510	509	32	0	
14	0	0	0	0	0	504	510	511	32	0	
15	0	0	0	0	0	504	511	510	32	0	
0	0	0	0	0	0	504	513	509	31	0	
1	0	0	0	0	0	505	511	505	31	0	
2	0	0	0	0	0	505	513	504	31	0	
3	0	0	0	0	1	507	514	507	31	0	
4	0	0	0	0	4	508	515	507	31	0	
5	0	0	0	0	0	506	510	504	31	0	
6	0	0	0	0	0	506	512	505	32	0	
7	0	0	0	0	0	506	511	507	31	0	
8	0	0	0	0	0	504	511	512	31	0	
9	0	0	0	0	0	504	513	516	32	0	
10	0	0	0	0	0	507	511	514	32	0	
11	0	0	0	0	1	504	511	509	31	0	
12	0	0	0	0	2	503	512	509	31	0	
13	0	0	0	0	0	503	513	507	31	0	
14	0	0	0	0	0	504	512	508	31	0	
15	0	0	0	0	0	506	516	508	31	0	
0	0	0	0	0	0	503	516	511	31	0	
1	0	0	0	0	0	505	513	508	31	0	
2	0	0	0	0	0	508	514	508	31	0	
3	0	0	0	0	0	508	512	510	31	0	
4	0	0	0	0	2	508	512	509	31	0	
5	0	0	0	0	0	507	511	510	31	0	
6	0	0	0	0	0	507	510	506	31	0	
7	0	0	0	0	0	508	512	506	31	0	
8	0	0	0	0	0	505	515	507	31	0	
9	0	0	0	0	0	505	512	508	31	0	
10	0	0	0	0	0	504	512	510	31	0	
11	0	0	0	0	0	503	513	510	31	0	
12	0	0	0	0	4	500	509	508	32	0	
13	0	0	0	0	0	502	511	507	32	0	
14	0	0	0	0	0	504	511	504	31	0	
15	0	0	0	0	0	505	509	503	31	0	
0	0	0	0	0	0	509	510	504	31	0	
1	0	0	0	0	0	509	515	505	31	0	
2	0	0	0	0	0	509	513	507	31	0	
3	0	0	0	0	0	508	511	511	31	0	
4	0	0	0	0	4	505	509	515	31	0	
5	0	0	0	0	0	505	512	515	32	0	
6	0	0	0	0	0	504	512	511	31	0	
7	0	0	0	0	0	505	510	510	31	0	
8	0	0	0	0	0	507	513	512	31	0	
9	0	0	0	0	0	505	514	511	31	0	
10	0	0	0	0	0	502	515	514	31	0	
11	0	0	0	0	1	507	520	511	31	0	
12	0	0	0	0	4	506	515	512	31	0	
13	0	0	0	0	0	506	513	513	31	0	
14	0	0	0	0	0	505	511	511	31	0	
15	0	0	0	0	0	505	510	511	31	0	
0	0	0	0	0	0	504	508	511	32	0	
1	0	0	0	0	0	505	513	508	32	0	
2	0	0	0	0	0	504	513	504	31	0	
3	0	0	0	0	1	504	512	504	31	0	
4	0	0	0	0	4	503	510	507	31	0	
5	0	0	0	0	0	502	508	511	31	0	
6	0	0	0	0	0	501	511	514	31	0	
7	0	0	0	0	0	505	508	512	31	0	
8	0	0	0	0	0	503	513	507	31	0	
9	0	0	0	0	0	504	511	508	31	0	
10	0	0	0	0	0	504	512	507	31	0	
11	0	0	0	0	0	505	510	505	31	0	
12	0	0	0	0	4	505	507	507	31	0	
13	0	0	0	0	0	504	506	509	31	0	
14	0	0	0	0	0	505	512	508	31	0	
15	0	0	0	0	0	506	512	508	31	0	
0	0	0	0	0	0	510	516	506	31	0	
1	0	0	0	0	0	510	513	507	32	0	
2	0	0	0	0	0	507	512	512	31	0	
3	0	0	0	0	0	506	513	515	31	0	
4	0	0	0	0	4	504	514	511	32	0	
5	0	0	0	0	0	505	513	509	32	0	
6	0	0	0	0	0	505	516	506	32	0	
7	0	0	0	0	0	505	517	505	31	0	
8	0	0	0	0	0	505	518	505	31	0	
9	0	0	0	0	0	505	516	507	31	0	
10	0	0	0	0	0	504	513	509	31	0	
11	0	0	0	0	1	504	511	510	31	0	
12	0	0	0	0	4	504	511	508	31	0	
13	0	0	0	0	0	503	510	511	32	0	
14	0	0	0	0	0	504	512	510	32	0	
15	0	0	0	0	0	504	512	512	32	0	
0	0	0	0	0	0	504	509	513	32	0	
1	0	0	0	0	0	504	511	517	32	0	
2	0	0	0	0	0	503	510	516	32	0	
3	0	0	0	0	0	503	511	514	31	0	
4	0	0	0	0	4	501	512	512	31	0	
5	0	0	0	0	0	504	511	502	31	0	
6	0	0	0	0	0	505	511	498	30	0	
7	0	0	0	0	0	504	511	504	30	0	
8	0	0	0	0	0	504	507	507	31	0	
9	0	0	0	0	0	506	507	504	31	0	
10	0	0	0	0	0	506	508	504	31	0	
11	0	0	0	0	1	506	509	508	32	0	
12	0	0	0	0	4	508	513	513	32	0	
13	0	0	0	0	0	506	517	515	32	0	
14	0	0	0	0	0	511	521	509	32	0	
15	0	0	0	0	0	512	521	506	31	0	
0	0	0	0	0	0	505	518	508	31	0	
1	0	0	0	0	0	505	513	508	31	0	
2	0	0	0	0	0	502	513	511	32	0	
3	0	0	0	0	1	503	513	511	32	0	
4	0	0	0	0	3	505	509	508	32	0	
5	0	0	0	0	0	504	510	513	32	0	
6	0	0	0	0	0	503	508	518	32	0	
7	0	0	0	0	0	501	510	518	32	0	
8	0	0	0	0	0	504	512	518	31	0	
9	0	0	0	0	0	504	513	511	31	0	
10	0	0	0	0	0	506	511	508	31	0	
11	0	0	0	0	1	509	514	508	31	0	
12	0	0	0	0	4	508	512	511	31	0	
13	0	0	0	0	0	506	511	515	32	0	
14	0	0	0	0	0	508	511	511	32	0	
15	0	0	0	0	0	507	514	506	31	0	
0	0	0	0	0	0	509	517	502	31	0	
1	0	0	0	0	0	507	514	501	31	0	
2	0	0	0	0	0	505	512	511	31	0	
3	0	0	0	0	0	502	512	513	32	0	
4	0	0	0	0	1	497	512	509	32	0	
5	0	0	0	0	0	499	510	506	31	0	
6	0	0	0	0	0	499	508	505	31	0	
7	0	0	0	0	0	503	503	507	31	0	
8	0	0	0	0	0	504	503	504	31	0	
9	0	0	0	0	0	504	510	504	31	0	
10	0	0	0	0	0	504	515	502	31	0	
11	0	0	0	0	0	507	517	504	31	0	
12	0	0	0	0	1	510	518	507	31	0	
13	0	0	0	0	0	505	512	507	32	0	
14	0	0	0	0	0	509	510	508	31	0	
15	0	0	0	0	0	508	515	508	31	0	
0	0	0	0	0	0	506	515	507	31	0	
1	0	0	0	0	0	506	520	507	31	0	
2	0	0	0	0	0	507	516	509	31	0	
3	0	0	0	0	0	505	510	510	31	0	
4	0	0	0	0	1	504	510	514	31	0	
5	0	0	0	0	0	501	508	519	32	0	
6	0	0	0	0	0	501	510	520	32	0	
7	0	0	0	0	0	503	509	515	32	0	
8	0	0	0	0	0	505	510	513	31	0	
9	0	0	0	0	0	508	507	506	31	0	
10	0	0	0	0	0	508	506	502	31	0	
11	0	0	0	0	1	507	506	499	31	0	
12	0	0	0	0	4	504	508	501	31	0	
13	0	0	0	0	0	503	511	506	31	0	
14	0	0	0	0	0	504	515	508	31	0	
15	0	0	0	0	0	504	513	508	32	0	
0	0	0	0	0	0	505	514	508	32	0	
1	0	0	0	0	0	507	511	505	32	0	
2	0	0	0	0	0	507	513	512	32	0	
3	0	0	0	0	0	505	516	510	32	0	
4	0	0	0	0	4	506	519	508	31	0	
5	0	0	0	0	0	507	516	512	31	0	
6	0	0	0	0	0	505	507	513	32	0	
7	0	0	0	0	0	504	505	512	31	0	
8	0	0	0	0	0	504	509	508	31	0	
9	0	0	0	0	0	507	515	507	31	0	
10	0	0	0	0	0	506	516	500	30	0	
11	0	0	0	0	1	507	513	504	31	0	
12	0	0	0	0	4	505	510	513	31	0	
13	0	0	0	0	0	504	508	522	32	0	
14	0	0	0	0	0	503	511	519	32	0	
15	0	0	0	0	0	507	514	515	32	0	
0	0	0	0	0	0	507	515	509	32	0	
1	0	0	0	0	0	508	512	510	32	0	
2	0	0	0	0	0	506	513	514	32	0	
3	0	0	0	0	1	503	513	520	32	0	
4	0	0	0	0	4	502	515	525	32	0	
5	0	0	0	0	0	502	515	527	31	0	
6	0	0	0	0	0	503	512	518	32	0	
7	0	0	0	0	0	506	511	502	32	0	
8	0	0	0	0	0	507	513	490	31	0	
9	0	0	0	0	0	505	516	483	30	0	
10	0	0	0	0	0	502	514	480	31	0	
11	0	0	0	0	1	503	511	487	31	0	
12	0	0	0	0	3	504	510	502	32	0	
13	0	0	0	0	0	504	508	515	32	0	
14	0	0	0	0	0	504	511	519	32	0	
15	0	0	0	0	0	507	511	520	31	0	
0	0	0	0	0	0	508	513	522	31	0	
1	0	0	0	0	0	507	512	512	31	0	
2	0	0	0	0	0	505	518	504	31	0	
3	0	0	0	0	1	507	517	504	31	0	
4	0	0	0	0	4	506	511	504	31	0	
5	0	0	0	0	0	504	510	511	31	0	
6	0	0	0	0	0	504	508	520	31	0	
7	0	0	0	0	0	503	510	512	32	0	
8	0	0	0	0	0	509	513	499	32	0	
9	0	0	0	0	0	508	510	498	32	0	
10	0	0	0	0	0	504	513	515	31	0	
11	0	0	0	0	0	504	516	524	31	0	
12	0	0	0	0	4	508	513	514	31	0	
13	0	0	0	0	0	504	512	509	32	0	
14	0	0	0	0	0	504	511	507	31	0	
15	0	0	0	0	0	504	511	504	31	0	
0	0	0	0	0	0	505	511	502	31	0	
1	0	0	0	0	0	502	510	509	31	0	
2	0	0	0	0	0	506	508	512	31	0	
3	0	0	0	0	0	507	508	505	31	0	
4	0	0	0	0	4	504	508	506	31	0	
5	0	0	0	0	0	503	505	513	31	0	
6	0	0	0	0	0	501	507	512	32	0	
7	0	0	0	0	0	502	508	513	32	0	
8	0	0	0	0	0	502	511	512	31	0	
9	0	0	0	0	0	503	512	512	32	0	
10	0	0	0	0	0	503	514	515	32	0	
11	0	0	0	0	1	506	516	510	32	0	
12	0	0	0	0	4	506	519	509	32	0	
13	0	0	0	0	0	508	518	510	31	0	
14	0	0	0	0	0	504	518	511	31	0	
15	0	0	0	0	0	504	511	516	32	0	
0	0	0	0	0	0	504	508	515	32	0	
1	0	0	0	0	0	507	510	511	32	0	
2	0	0	0	0	0	508	517	492	30	0	
3	0	0	0	0	1	510	513	500	30	0	
4	0	0	0	0	4	508	503	515	32	0	
5	0	0	0	0	0	504	511	521	32	0	
6	0	0	0	0	0	507	517	507	32	0	
7	0	0	0	0	0	505	519	501	31	0	
8	0	0	0	0	0	505	519	493	31	0	
9	0	0	0	0	0	504	515	501	31	0	
10	0	0	0	0	0	505	514	505	31	0	
11	0	0	0	0	0	510	516	500	31	0	
12	0	0	0	0	3	509	512	506	31	0	
13	0	0	0	0	0	507	508	514	31	0	
14	0	0	0	0	0	502	506	511	31	0	
15	0	0	0	0	0	499	508	505	32	0	
0	0	0	0	0	0	502	511	528	33	0	
1	0	0	0	0	0	501	515	533	33	0	
2	0	0	0	0	0	506	518	520	32	0	
3	0	0	0	0	0	509	516	513	32	0	
4	0	0	0	0	2	505	513	499	31	0	
5	0	0	0	0	0	500	516	497	30	0	
6	0	0	0	0	0	499	510	504	30	0	
7	0	0	0	0	0	504	507	509	30	0	
8	0	0	0	0	0	507	506	511	31	0	
9	0	0	0	0	0	506	505	511	31	0	
10	0	0	0	0	0	505	507	515	32	0	
11	0	0	0	0	0	510	508	519	32	0	
12	0	0	0	0	2	506	504	508	32	0	
13	0	0	0	0	0	504	503	505	32	0	
14	0	0	0	0	0	501	513	503	31	0	
15	0	0	0	0	0	504	520	499	31	0	
0	0	0	0	0	0	504	518	500	31	0	
1	0	0	0	0	0	504	516	505	31	0	
2	0	0	0	0	0	505	513	505	31	0	
3	0	0	0	0	0	505	518	509	31	0	
4	0	0	0	0	2	506	517	506	31	0	
5	0	0	0	0	0	507	511	503	31	0	
6	0	0	0	0	0	506	511	500	31	0	
7	0	0	0	0	0	505	509	503	31	0	
8	0	0	0	0	0	504	510	511	32	0	
9	0	0	0	0	0	505	514	515	31	0	
10	0	0	0	0	0	509	515	514	31	0	
11	0	0	0	0	1	508	513	515	32	0	
12	0	0	0	0	4	505	509	513	32	0	
13	0	0	0	0	0	502	509	509	31	0	
14	0	0	0	0	0	504	510	510	31	0	
15	0	0	0	0	0	503	513	508	31	0	
0	0	0	0	0	0	504	511	509	31	0	
1	0	0	0	0	0	504	512	511	31	0	
2	0	0	0	0	0	503	510	511	32	0	
3	0	0	0	0	1	505	514	512	32	0	
4	0	0	0	0	4	505	512	511	31	0	
5	0	0	0	0	0	508	515	509	31	0	
6	0	0	0	0	0	508	515	510	31	0	
7	0	0	0	0	0	508	511	516	32	0	
8	0	0	0	0	0	507	511	513	32	0	
9	0	0	0	0	0	506	511	509	31	0	
10	0	0	0	0	0	504	511	505	31	0	
11	0	0	0	0	0	510	514	504	31	0	
12	0	0	0	0	4	508	513	505	31	0	
13	0	0	0	0	0	504	511	508	31	0	
14	0	0	0	0	0	500	513	507	31	0	
15	0	0	0	0	0	499	511	515	31	0	
0	0	0	0	0	0	501	508	517	32	0	
1	0	0	0	0	0	502	509	512	32	0	
2	0	0	0	0	0	504	514	510	31	0	
3	0	0	0	0	0	505	519	513	32	0	
4	0	0	0	0	4	507	513	518	32	0	
5	0	0	0	0	0	505	511	519	32	0	
6	0	0	0	0	0	505	515	515	32	0	
7	0	0	0	0	0	505	511	508	31	0	
8	0	0	0	0	0	508	510	492	31	0	
9	0	0	0	0	0	507	511	488	31	0	
10	0	0	0	0	0	506	510	495	31	0	
11	0	0	0	0	1	502	508	512	31	0	
12	0	0	0	0	4	502	510	518	32	0	
13	0	0	0	0	0	504	514	515	31	0	
14	0	0	0	0	0	507	515	511	31	0	
15	0	0	0	0	0	507	516	510	31	0	
0	0	0	0	0	0	508	513	515	32	0	
1	0	0	0	0	0	506	512	516	32	0	
2	0	0	0	0	0	507	513	516	32	0	
3	0	0	0	0	1	508	514	510	31	0	
4	0	0	0	0	3	505	513	506	31	0	
5	0	0	0	0	0	505	512	500	30	0	
6	0	0	0	0	0	504	512	503	31	0	
7	0	0	0	0	0	502	511	505	32	0	
8	0	0	0	0	0	502	510	505	32	0	
9	0	0	0	0	0	502	512	508	32	0	
10	0	0	0	0	0	504	513	510	31	0	
11	0	0	0	0	1	507	511	512	31	0	
12	0	0	0	0	4	508	508	506	30	0	
13	0	0	0	0	0	506	508	508	30	0	
14	0	0	0	0	0	505	511	507	31	0	
15	0	0	0	0	0	503	510	507	31	0	
0	0	0	0	0	0	503	510	506	32	0	
1	0	0	0	0	0	505	511	505	31	0	
2	0	0	0	0	0	508	513	503	31	0	
3	0	0	0	0	0	508	516	504	31	0	
4	0	0	0	0	4	508	515	507	31	0	
5	0	0	0	0	0	502	513	508	32	0	
6	0	0	0	0	0	499	512	518	32	0	
7	0	0	0	0	0	497	511	526	33	0	
8	0	0	0	0	0	499	506	520	32	0	
9	0	0	0	0	0	503	507	519	32	0	
10	0	0	0	0	0	502	507	518	31	0	
11	0	0	0	0	0	506	515	513	31	0	
12	0	0	0	0	4	504	516	507	30	0	
13	0	0	0	0	0	506	513	507	31	0	
14	0	0	0	0	0	508	513	506	31	0	
15	0	0	0	0	0	508	512	508	32	0	
0	0	0	0	0	0	509	512	512	32	0	
1	0	0	0	0	0	505	513	511	32	0	
2	0	0	0	0	0	504	511	510	32	0	
3	0	0	0	0	1	503	509	512	32	0	
4	0	0	0	0	4	506	512	509	31	0	
5	0	0	0	0	0	506	519	507	31	0	
6	0	0	0	0	0	508	518	507	31	0	
7	0	0	0	0	0	508	512	507	31	0	
8	0	0	0	0	0	507	513	511	32	0	
9	0	0	0	0	0	508	513	513	32	0	
10	0	0	0	0	0	508	514	507	32	0	
11	0	0	0	0	1	510	511	496	31	0	
12	0	0	0	0	3	507	512	497	31	0	
13	0	0	0	0	0	502	510	500	31	0	
14	0	0	0	0	0	500	513	505	31	0	
15	0	0	0	0	0	502	514	512	31	0	
0	0	0	0	0	0	504	512	507	31	0	
1	0	0	0	0	0	504	512	503	31	0	
2	0	0	0	0	0	504	510	505	31	0	
3	0	0	0	0	0	503	505	506	31	0	
4	0	0	0	0	1	504	506	511	31	0	
5	0	0	0	0	0	503	508	513	31	0	
6	0	0	0	0	0	502	506	515	32	0	
7	0	0	0	0	0	504	510	513	31	0	
8	0	0	0	0	0	508	508	508	31	0	
9	0	0	0	0	0	511	513	507	31	0	
10	0	0	0	0	0	508	514	511	31	0	
11	0	0	0	0	0	505	514	512	31	0	
12	0	0	0	0	1	507	516	508	31	0	
13	0	0	0	0	0	507	515	510	31	0	
14	0	0	0	0	0	506	515	511	31	0	
15	0	0	0	0	0	504	517	515	32	0	
0	0	0	0	0	0	502	516	512	32	0	
1	0	0	0	0	0	504	515	511	31	0	
2	0	0	0	0	0	506	511	509	31	0	
3	0	0	0	0	1	505	512	510	31	0	
4	0	0	0	0	4	507	512	509	31	0	
5	0	0	0	0	0	508	510	507	31	0	
6	0	0	0	0	0	505	511	506	31	0	
7	0	0	0	0	0	505	512	510	31	0	
8	0	0	0	0	0	506	510	506	32	0	
9	0	0	0	0	0	505	509	508	31	0	
10	0	0	0	0	0	503	509	514	32	0	
11	0	0	0	0	1	501	510	519	32	0	
12	0	0	0	0	4	499	513	516	32	0	
13	0	0	0	0	0	504	511	512	31	0	
14	0	0	0	0	0	505	513	507	31	0	
15	0	0	0	0	0	507	511	504	31	0	
0	0	0	0	0	0	507	512	506	31	0	
1	0	0	0	0	0	508	510	506	31	0	
2	0	0	0	0	0	508	513	508	31	0	
3	0	0	0	0	1	503	514	507	31	0	
4	0	0	0	0	4	502	517	510	31	0	
5	0	0	0	0	0	504	515	509	32	0	
6	0	0	0	0	0	503	508	505	31	0	
7	0	0	0	0	0	504	507	510	31	0	
8	0	0	0	0	0	504	509	513	31	0	
9	0	0	0	0	0	504	511	512	31	0	
10	0	0	0	0	0	503	516	510	31	0	
11	0	0	0	0	1	506	520	512	31	0	
12	0	0	0	0	4	505	519	510	31	0	
13	0	0	0	0	0	507	513	506	31	0	
14	0	0	0	0	0	508	508	507	31	0	
15	0	0	0	0	0	504	508	507	31	0	
0	0	0	0	0	0	507	512	504	31	0	
1	0	0	0	0	0	507	513	504	31	0	
2	0	0	0	0	0	507	510	504	31	0	
3	0	0	0	0	0	507	510	506	31	0	
4	0	0	0	0	4	505	510	504	31	0	
5	0	0	0	0	0	505	511	511	31	0	
6	0	0	0	0	0	504	513	519	32	0	
7	0	0	0	0	0	504	514	516	32	0	
8	0	0	0	0	0	506	516	510	31	0	
9	0	0	0	0	0	506	513	512	32	0	
10	0	0	0	0	0	506	514	513	31	0	
11	0	0	0	0	1	506	515	513	31	0	
12	0	0	0	0	4	505	511	515	31	0	
13	0	0	0	0	0	505	512	512	31	0	
14	0	0	0	0	0	508	511	510	32	0	
15	0	0	0	0	0	507	512	511	31	0	
0	0	0	0	0	0	504	512	512	31	0	
1	0	0	0	0	0	501	513	511	31	0	
2	0	0	0	0	0	503	512	509	31	0	
3	0	0	0	0	0	504	510	506	31	0	
4	0	0	0	0	4	506	509	504	31	0	
5	0	0	0	0	0	507	511	508	32	0	
6	0	0	0	0	0	505	508	510	31	0	
7	0	0	0	0	0	508	511	505	31	0	
8	0	0	0	0	0	507	509	502	32	0	
9	0	0	0	0	0	504	512	500	32	0	
10	0	0	0	0	0	505	512	505	31	0	
11	0	0	0	0	1	507	510	507	31	0	
12	0	0	0	0	4	505	509	507	31	0	
13	0	0	0	0	0	505	510	508	31	0	
14	0	0	0	0	0	504	512	510	31	0	
15	0	0	0	0	0	505	515	511	32	0	
0	0	0	0	0	0	508	515	508	32	0	
1	0	0	0	0	0	507	514	511	31	0	
2	0	0	0	0	0	505	513	514	32	0	
3	0	0	0	0	0	504	513	513	32	0	
4	0	0	0	0	4	504	514	507	31	0	
5	0	0	0	0	0	508	513	500	31	0	
6	0	0	0	0	0	506	516	502	31	0	
7	0	0	0	0	0	503	513	511	31	0	
8	0	0	0	0	0	501	513	518	32	0	
9	0	0	0	0	0	499	513	522	32	0	
10	0	0	0	0	0	499	512	518	32	0	
11	0	0	0	0	0	504	511	513	32	0	
12	0	0	0	0	4	504	514	516	32	0	
13	0	0	0	0	0	503	513	514	31	0	
14	0	0	0	0	0	503	512	512	31	0	
15	0	0	0	0	0	503	514	508	31	0	
0	0	0	0	0	0	507	512	505	31	0	
1	0	0	0	0	0	505	510	506	31	0	
2	0	0	0	0	0	508	511	502	32	0	
3	0	0	0	0	1	509	511	504	31	0	
4	0	0	0	0	4	504	514	508	31	0	
5	0	0	0	0	0	508	515	504	31	0	
6	0	0	0	0	0	509	513	508	31	0	
7	0	0	0	0	0	507	515	511	31	0	
8	0	0	0	0	0	507	511	509	31	0	
9	0	0	0	0	0	507	508	506	31	0	
10	0	0	0	0	0	507	508	507	31	0	
11	0	0	0	0	0	504	510	509	32	0	
12	0	0	0	0	2	504	510	512	32	0	
13	0	0	0	0	0	502	509	510	32	0	
14	0	0	0	0	0	503	514	508	31	0	
15	0	0	0	0	0	505	513	510	31	0	
0	0	0	0	0	0	505	512	508	31	0	
1	0	0	0	0	0	505	512	510	31	0	
2	0	0	0	0	0	507	511	508	31	0	
3	0	0	0	0	0	506	510	508	31	0	
4	0	0	0	0	2	504	511	508	31	0	
5	0	0	0	0	0	502	511	508	31	0	
6	0	0	0	0	0	504	513	511	31	0	
7	0	0	0	0	0	504	511	507	31	0	
8	0	0	0	0	0	505	512	511	31	0	
9	0	0	0	0	0	504	510	513	31	0	
10	0	0	0	0	0	504	511	508	31	0	
11	0	0	0	0	0	502	510	510	31	0	
12	0	0	0	0	2	501	512	511	32	0	
13	0	0	0	0	0	505	511	510	32	0	
14	0	0	0	0	0	504	514	511	31	0	
15	0	0	0	0	0	506	518	508	31	0	
0	0	0	0	0	0	504	512	509	31	0	
1	0	0	0	0	0	506	511	508	31	0	
2	0	0	0	0	0	506	510	509	31	0	
3	0	0	0	0	1	508	511	507	31	0	
4	0	0	0	0	4	505	513	504	31	0	
5	0	0	0	0	0	508	514	504	31	0	
6	0	0	0	0	0	507	512	508	31	0	
7	0	0	0	0	0	506	514	509	31	0	
8	0	0	0	0	0	506	513	506	32	0	
9	0	0	0	0	0	505	512	511	31	0	
10	0	0	0	0	0	504	512	511	32	0	
11	0	0	0	0	1	506	508	511	31	0	
12	0	0	0	0	4	504	512	512	31	0	
13	0	0	0	0	0	504	514	511	31	0	
14	0	0	0	0	0	504	513	509	31	0	
15	0	0	0	0	0	503	511	511	31	0	
0	0	0	0	0	0	505	512	511	31	0	
1	0	0	0	0	0	507	511	508	32	0	
2	0	0	0	0	0	506	511	504	31	0	
3	0	0	0	0	1	505	513	510	31	0	
4	0	0	0	0	4	504	515	517	31	0	
5	0	0	0	0	0	504	512	518	32	0	
6	0	0	0	0	0	504	510	516	32	0	
7	0	0	0	0	0	506	510	510	32	0	
8	0	0	0	0	0	504	511	506	31	0	
9	0	0	0	0	0	507	513	503	31	0	
10	0	0	0	0	0	507	513	503	31	0	
11	0	0	0	0	1	505	511	506	31	0	
12	0	0	0	0	3	505	512	507	31	0	
13	0	0	0	0	0	504	512	508	31	0	
14	0	0	0	0	0	505	510	511	31	0	
15	0	0	0	0	0	503	512	508	31	0	
0	0	0	0	0	0	503	512	510	31	0	
1	0	0	0	0	0	503	512	510	31	0	
2	0	0	0	0	0	506	515	510	31	0	
3	0	0	0	0	0	508	513	507	31	0	
4	0	0	0	0	4	510	513	508	31	0	
5	0	0	0	0	0	510	515	508	31	0	
6	0	0	0	0	0	508	515	509	31	0	
7	0	0	0	0	0	505	514	510	31	0	
8	0	0	0	0	0	503	513	511	31	0	
9	0	0	0	0	0	500	510	511	32	0	
10	0	0	0	0	0	503	509	511	32	0	
11	0	0	0	0	0	504	510	512	32	0	
12	0	0	0	0	4	504	513	512	32	0	
13	0	0	0	0	0	504	513	507	31	0	
14	0	0	0	0	0	506	512	504	31	0	
15	0	0	0	0	0	506	511	508	31	0	
0	0	0	0	0	0	507	512	508	31	0	
1	0	0	0	0	0	506	512	508	31	0	
2	0	0	0	0	0	506	510	507	31	0	
3	0	0	0	0	1	506	509	508	31	0	
4	0	0	0	0	4	507	510	507	31	0	
5	0	0	0	0	0	505	511	508	31	0	
6	0	0	0	0	0	504	512	506	31	0	
7	0	0	0	0	0	503	514	509	31	0	
8	0	0	0	0	0	502	513	510	32	0	
9	0	0	0	0	0	504	513	514	32	0	
10	0	0	0	0	0	507	513	513	32	0	
11	0	0	0	0	1	507	513	512	31	0	
12	0	0	0	0	4	508	515	512	31	0	
13	0	0	0	0	0	506	518	515	31	0	
14	0	0	0	0	0	507	515	510	31	0	
15	0	0	0	0	0	504	512	506	31	0	
0	0	0	0	0	0	504	512	507	31	0	
1	0	0	0	0	0	504	512	506	31	0	
2	0	0	0	0	0	504	512	506	31	0	
3	0	0	0	0	1	505	511	507	31	0	
4	0	0	0	0	4	505	509	509	31	0	
5	0	0	0	0	0	505	511	508	31	0	
6	0	0	0	0	0	505	511	507	31	0	
7	0	0	0	0	0	505	512	507	31	0	
8	0	0	0	0	0	504	513	506	31	0	
9	0	0	0	0	0	507	513	508	31	0	
10	0	0	0	0	0	506	513	505	31	0	
11	0	0	0	0	1	505	510	504	31	0	
12	0	0	0	0	4	504	508	507	31	0	
13	0	0	0	0	0	505	511	510	31	0	
14	0	0	0	0	0	505	514	510	31	0	
15	0	0	0	0	0	507	515	517	31	0	
0	0	0	0	0	0	505	513	519	32	0	
1	0	0	0	0	0	506	512	512	31	0	
2	0	0	0	0	0	508	512	508	31	0	
3	0	0	0	0	0	506	511	509	31	0	
4	0	0	0	0	4	504	511	507	31	0	
5	0	0	0	0	0	504	511	506	31	0	
6	0	0	0	0	0	508	511	504	31	0	
7	0	0	0	0	0	504	510	504	31	0	
8	0	0	0	0	0	501	512	511	32	0	
9	0	0	0	0	0	499	512	513	31	0	
10	0	0	0	0	0	505	513	513	31	0	
11	0	0	0	0	0	505	511	512	31	0	
12	0	0	0	0	1	507	510	509	31	0	
13	0	0	0	0	0	506	512	509	31	0	
14	0	0	0	0	0	506	510	509	32	0	
15	0	0	0	0	0	506	511	513	32	0	
0	0	0	0	0	0	504	515	515	31	0	
1	0	0	0	0	0	504	515	518	32	0	
2	0	0	0	0	0	503	514	514	32	0	
3	0	0	0	0	0	503	518	507	32	0	
4	0	0	0	0	1	508	513	507	31	0	
5	0	0	0	0	0	511	510	504	31	0	
6	0	0	0	0	0	511	508	503	31	0	
7	0	0	0	0	0	509	506	508	31	0	
8	0	0	0	0	0	508	508	509	31	0	
9	0	0	0	0	0	508	508	513	31	0	
10	0	0	0	0	0	506	510	523	32	0	
11	0	0	0	0	0	506	514	522	32	0	
12	0	0	0	0	1	504	517	519	32	0	
13	0	0	0	0	0	502	519	513	32	0	
14	0	0	0	0	0	504	519	511	31	0	
15	0	0	0	0	0	506	516	499	30	0	
0	0	0	0	0	0	508	511	487	30	0	
1	0	0	0	0	0	508	508	484	30	0	
2	0	0	0	0	0	505	507	484	30	0	
3	0	0	0	0	1	504	509	485	31	0	
4	0	0	0	0	4	503	510	493	31	0	
5	0	0	0	0	0	504	512	504	32	0	
6	0	0	0	0	0	500	512	515	32	0	
7	0	0	0	0	0	500	511	521	32	0	
8	0	0	0	0	0	504	511	522	32	0	
9	0	0	0	0	0	507	510	520	32	0	
10	0	0	0	0	0	511	513	517	31	0	
11	0	0	0	0	1	509	511	515	31	0	
12	0	0	0	0	4	507	513	515	31	0	
13	0	0	0	0	0	508	513	511	31	0	
14	0	0	0	0	0	509	513	508	31	0	
15	0	0	0	0	0	508	513	510	31	0	
0	0	0	0	0	0	508	512	515	32	0	
1	0	0	0	0	0	508	512	515	32	0	
2	0	0	0	0	0	505	512	516	32	0	
3	0	0	0	0	0	504	513	512	32	0	
4	0	0	0	0	4	506	513	508	32	0	
5	0	0	0	0	0	506	510	504	31	0	
6	0	0	0	0	0	504	510	504	31	0	
7	0	0	0	0	0	508	511	508	31	0	
8	0	0	0	0	0	507	513	508	31	0	
9	0	0	0	0	0	508	513	509	31	0	
10	0	0	0	0	0	506	513	513	31	0	
11	0	0	0	0	1	503	513	517	32	0	
12	0	0	0	0	3	504	512	516	31	0	
13	0	0	0	0	0	504	514	514	31	0	
14	0	0	0	0	0	505	514	512	32	0	
15	0	0	0	0	0	505	515	511	32	0	
0	0	0	0	0	0	507	515	504	32	0	
1	0	0	0	0	0	503	514	502	31	0	
2	0	0	0	0	0	502	512	506	31	0	
3	0	0	0	0	1	502	510	509	31	0	
4	0	0	0	0	4	502	510	510	31	0	
5	0	0	0	0	0	503	511	511	31	0	
6	0	0	0	0	0	504	508	509	32	0	
7	0	0	0	0	0	505	508	507	31	0	
8	0	0	0	0	0	501	508	510	31	0	
9	0	0	0	0	0	500	511	508	31	0	
10	0	0	0	0	0	503	512	505	31	0	
11	0	0	0	0	0	505	513	507	31	0	
12	0	0	0	0	4	505	512	506	31	0	
13	0	0	0	0	0	502	514	507	31	0	
14	0	0	0	0	0	501	512	511	31	0	
15	0	0	0	0	0	500	514	508	31	0	
0	0	0	0	0	0	503	513	508	31	0	
1	0	0	0	0	0	504	511	513	31	0	
2	0	0	0	0	0	504	512	510	32	0	
3	0	0	0	0	0	504	514	511	32	0	
4	0	0	0	0	4	502	508	512	32	0	
5	0	0	0	0	0	507	512	506	31	0	
6	0	0	0	0	0	505	513	510	31	0	
7	0	0	0	0	0	506	511	508	31	0	
8	0	0	0	0	0	505	513	509	31	0	
9	0	0	0	0	0	508	515	505	31	0	
10	0	0	0	0	0	506	515	504	31	0	
11	0	0	0	0	0	506	514	508	31	0	
12	0	0	0	0	4	503	515	511	31	0	
13	0	0	0	0	0	503	510	512	31	0	
14	0	0	0	0	0	504	511	511	31	0	
15	0	0	0	0	0	506	510	509	31	0	
0	0	0	0	0	0	504	511	511	32	0	
1	0	0	0	0	0	504	511	513	31	0	
2	0	0	0	0	0	505	514	515	32	0	
3	0	0	0	0	1	504	512	515	31	0	
4	0	0	0	0	4	504	513	514	31	0	
5	0	0	0	0	0	504	513	513	31	0	
6	0	0	0	0	0	503	510	514	31	0	
7	0	0	0	0	0	502	508	508	31	0	
8	0	0	0	0	0	504	509	502	31	0	
9	0	0	0	0	0	507	510	494	31	0	
10	0	0	0	0	0	508	513	491	31	0	
11	0	0	0	0	1	509	512	498	31	0	
12	0	0	0	0	4	510	513	504	31	0	
13	0	0	0	0	0	508	512	504	31	0	
14	0	0	0	0	0	507	512	509	31	0	
15	0	0	0	0	0	506	511	511	31	0	
0	0	0	0	0	0	506	512	516	31	0	
1	0	0	0	0	0	506	509	516	31	0	
2	0	0	0	0	0	504	511	515	31	0	
3	0	0	0	0	1	504	510	515	32	0	
4	0	0	0	0	4	505	513	515	32	0	
5	0	0	0	0	0	504	513	516	32	0	
6	0	0	0	0	0	507	514	516	32	0	
7	0	0	0	0	0	504	516	515	32	0	
8	0	0	0	0	0	505	515	513	32	0	
9	0	0	0	0	0	503	514	508	31	0	
10	0	0	0	0	0	506	512	505	31	0	
11	0	0	0	0	0	508	512	503	31	0	
12	0	0	0	0	2	508	514	503	31	0	
13	0	0	0	0	0	504	513	510	31	0	
14	0	0	0	0	0	507	512	516	31	0	
15	0	0	0	0	0	505	511	510	31	0	
0	0	0	0	0	0	505	512	505	31	0	
1	0	0	0	0	0	505	513	504	31	0	
2	0	0	0	0	0	507	513	504	31	0	
3	0	0	0	0	0	503	512	502	31	0	
4	0	0	0	0	2	504	513	505	31	0	
5	0	0	0	0	0	504	513	505	31	0	
6	0	0	0	0	0	502	512	508	32	0	
7	0	0	0	0	0	502	510	508	32	0	
8	0	0	0	0	0	501	510	513	32	0	
9	0	0	0	0	0	504	512	514	32	0	
10	0	0	0	0	0	504	511	516	32	0	
11	0	0	0	0	1	503	513	514	31	0	
12	0	0	0	0	4	504	510	515	31	0	
13	0	0	0	0	0	504	513	514	31	0	
14	0	0	0	0	0	504	515	510	31	0	
15	0	0	0	0	0	506	513	508	31	0	
0	0	0	0	0	0	508	512	506	31	0	
1	0	0	0	0	0	508	513	504	31	0	
2	0	0	0	0	0	508	513	504	31	0	
3	0	0	0	0	1	508	511	508	31	0	
4	0	0	0	0	4	508	511	510	31	0	
5	0	0	0	0	0	507	512	510	31	0	
6	0	0	0	0	0	505	511	511	32	0	
7	0	0	0	0	0	504	512	508	31	0	
8	0	0	0	0	0	504	511	507	31	0	
9	0	0	0	0	0	503	510	508	31	0	
10	0	0	0	0	0	504	512	510	31	0	
11	0	0	0	0	1	506	512	511	31	0	
12	0	0	0	0	3	507	514	513	31	0	
13	0	0	0	0	0	504	511	512	31	0	
14	0	0	0	0	0	504	511	511	31	0	
15	0	0	0	0	0	507	512	511	31	0	
0	0	0	0	0	0	506	513	506	31	0	
1	0	0	0	0	0	507	511	506	31	0	
2	0	0	0	0	0	507	512	507	31	0	
3	0	0	0	0	0	508	512	510	31	0	
4	0	0	0	0	4	503	512	512	31	0	
5	0	0	0	0	0	505	511	512	32	0	
6	0	0	0	0	0	503	511	509	32	0	
7	0	0	0	0	0	503	511	512	31	0	
8	0	0	0	0	0	504	509	509	31	0	
9	0	0	0	0	0	506	515	508	31	0	
10	0	0	0	0	0	509	516	505	31	0	
11	0	0	0	0	0	508	515	506	31	0	
12	0	0	0	0	4	506	512	508	31	0	
13	0	0	0	0	0	507	508	506	31	0	
14	0	0	0	0	0	505	508	508	31	0	
15	0	0	0	0	0	504	510	512	31	0	
0	0	0	0	0	0	504	512	511	32	0	
1	0	0	0	0	0	504	512	507	31	0	
2	0	0	0	0	0	504	512	508	31	0	
3	0	0	0	0	1	505	514	511	31	0	
4	0	0	0	0	4	505	514	508	31	0	
5	0	0	0	0	0	504	515	511	31	0	
6	0	0	0	0	0	503	512	509	31	0	
7	0	0	0	0	0	504	512	508	31	0	
8	0	0	0	0	0	504	512	509	32	0	
9	0	0	0	0	0	504	511	509	32	0	
10	0	0	0	0	0	507	513	511	31	0	
11	0	0	0	0	1	509	512	512	31	0	
12	0	0	0	0	4	506	512	509	31	0	
13	0	0	0	0	0	506	515	508	31	0	
14	0	0	0	0	0	505	514	508	31	0	
15	0	0	0	0	0	505	514	508	31	0	
0	0	0	0	0	0	507	511	507	31	0	
1	0	0	0	0	0	506	513	509	31	0	
2	0	0	0	0	0	504	513	511	31	0	
3	0	0	0	0	1	504	510	509	31	0	
4	0	0	0	0	3	505	511	514	31	0	
5	0	0	0	0	0	503	513	514	31	0	
6	0	0	0	0	0	503	514	510	31	0	
7	0	0	0	0	0	504	513	506	31	0	
8	0	0	0	0	0	504	511	509	32	0	
9	0	0	0	0	0	507	512	508	32	0	
10	0	0	0	0	0	506	512	508	32	0	
11	0	0	0	0	0	504	513	508	31	0	
12	0	0	0	0	4	506	512	514	31	0	
13	0	0	0	0	0	504	511	515	32	0	
14	0	0	0	0	0	506	511	512	31	0	
15	0	0	0	0	0	506	514	508	31	0	
0	0	0	0	0	0	506	513	504	31	0	
1	0	0	0	0	0	506	509	499	31	0	
2	0	0	0	0	0	504	510	500	31	0	
3	0	0	0	0	1	504	510	500	31	0	
4	0	0	0	0	4	505	511	505	31	0	
5	0	0	0	0	0	506	512	509	31	0	
6	0	0	0	0	0	507	510	512	31	0	
7	0	0	0	0	0	507	509	515	31	0	
8	0	0	0	0	0	504	513	515	31	0	
9	0	0	0	0	0	502	513	512	31	0	
10	0	0	0	0	0	504	513	508	32	0	
11	0	0	0	0	1	504	510	508	32	0	
12	0	0	0	0	4	503	510	507	31	0	
13	0	0	0	0	0	502	510	509	31	0	
14	0	0	0	0	0	502	509	509	31	0	
15	0	0	0	0	0	505	511	509	31	0	
0	0	0	0	0	0	505	511	510	31	0	
1	0	0	0	0	0	504	512	512	31	0	
2	0	0	0	0	0	508	512	508	31	0	
3	0	0	0	0	0	507	513	506	31	0	
4	0	0	0	0	1	510	515	508	31	0	
5	0	0	0	0	0	508	513	508	32	0	
6	0	0	0	0	0	506	515	509	31	0	
7	0	0	0	0	0	504	515	509	31	0	
8	0	0	0	0	0	505	512	512	32	0	
9	0	0	0	0	0	505	512	513	32	0	
10	0	0	0	0	0	505	511	509	31	0	
11	0	0	0	0	0	504	512	509	31	0	
12	0	0	0	0	1	506	513	510	31	0	
13	0	0	0	0	0	508	513	511	31	0	
14	0	0	0	0	0	507	512	513	31	0	
15	0	0	0	0	0	505	511	511	31	0	
0	0	0	0	0	0	503	510	509	31	0	
1	0	0	0	0	0	504	511	509	31	0	
2	0	0	0	0	0	504	510	508	31	0	
3	0	0	0	0	0	507	510	506	31	0	
4	0	0	0	0	1	507	511	500	31	0	
5	0	0	0	0	0	508	509	503	31	0	
6	0	0	0	0	0	508	510	507	31	0	
7	0	0	0	0	0	505	511	507	32	0	
8	0	0	0	0	0	505	512	510	32	0	
9	0	0	0	0	0	506	515	514	32	0	
10	0	0	0	0	0	501	513	516	32	0	
11	0	0	0	0	0	503	512	511	31	0	
12	0	0	0	0	4	503	511	508	31	0	
13	0	0	0	0	0	506	511	508	31	0	
14	0	0	0	0	0	504	513	510	31	0	
15	0	0	0	0	0	503	513	511	31	0	
0	0	0	0	0	0	505	514	511	32	0	
1	0	0	0	0	0	503	510	510	31	0	
2	0	0	0	0	0	508	513	510	31	0	
3	0	0	0	0	0	505	513	509	32	0	
4	0	0	0	0	4	506	512	509	31	0	
5	0	0	0	0	0	507	512	510	32	0	
6	0	0	0	0	0	505	512	506	31	0	
7	0	0	0	0	0	506	515	507	31	0	
8	0	0	0	0	0	505	513	509	31	0	
9	0	0	0	0	0	505	512	509	31	0	
10	0	0	0	0	0	504	513	508	31	0	
11	0	0	0	0	1	504	513	509	31	0	
12	0	0	0	0	4	508	511	507	31	0	
13	0	0	0	0	0	507	511	508	31	0	
14	0	0	0	0	0	506	511	508	31	0	
15	0	0	0	0	0	503	510	512	31	0	
0	0	0	0	0	0	503	510	512	31	0	
1	0	0	0	0	0	503	511	511	31	0	
2	0	0	0	0	0	504	511	508	31	0	
3	0	0	0	0	1	505	510	505	32	0	
4	0	0	0	0	4	503	512	505	32	0	
5	0	0	0	0	0	504	512	507	32	0	
6	0	0	0	0	0	504	510	510	31	0	
7	0	0	0	0	0	504	510	510	31	0	
8	0	0	0	0	0	505	513	510	31	0	
9	0	0	0	0	0	505	513	512	31	0	
10	0	0	0	0	0	505	515	510	31	0	
11	0	0	0	0	1	507	513	518	32	0	
12	0	0	0	0	4	506	512	516	31	0	
13	0	0	0	0	0	505	513	512	31	0	
14	0	0	0	0	0	504	511	507	31	0	
15	0	0	0	0	0	502	512	504	31	0	
0	0	0	0	0	0	505	511	499	31	0	
1	0	0	0	0	0	506	513	499	31	0	
2	0	0	0	0	0	506	514	502	31	0	
3	0	0	0	0	1	505	512	508	31	0	
4	0	0	0	0	4	505	512	510	31	0	
5	0	0	0	0	0	504	514	513	32	0	
6	0	0	0	0	0	504	511	513	31	0	
7	0	0	0	0	0	505	513	515	32	0	
8	0	0	0	0	0	507	513	515	32	0	
9	0	0	0	0	0	504	511	515	31	0	
10	0	0	0	0	0	504	510	509	31	0	
11	0	0	0	0	0	506	511	508	31	0	
12	0	0	0	0	4	506	509	509	32	0	
13	0	0	0	0	0	507	510	509	31	0	
14	0	0	0	0	0	505	509	505	31	0	
15	0	0	0	0	0	506	510	505	31	0	
0	0	0	0	0	0	508	512	505	32	0	
1	0	0	0	0	0	506	513	508	32	0	
2	0	0	0	0	0	506	511	509	32	0	
3	0	0	0	0	1	505	515	513	31	0	
4	0	0	0	0	4	506	515	516	31	0	
5	0	0	0	0	0	506	515	514	31	0	
6	0	0	0	0	0	504	511	513	31	0	
7	0	0	0	0	0	504	513	509	31	0	
8	0	0	0	0	0	505	510	510	31	0	
9	0	0	0	0	0	506	511	506	31	0	
10	0	0	0	0	0	505	512	507	31	0	
11	0	0	0	0	1	506	513	507	32	0	
12	0	0	0	0	4	505	513	504	31	0	
13	0	0	0	0	0	505	512	504	32	0	
14	0	0	0	0	0	504	510	508	31	0	
15	0	0	0	0	0	502	512	511	32	0	
0	0	0	0	0	0	500	512	511	32	0	
1	0	0	0	0	0	502	510	511	31	0	
2	0	0	0	0	0	504	509	512	31	0	
3	0	0	0	0	0	505	511	511	31	0	
4	0	0	0	0	4	507	513	512	32	0	
5	0	0	0	0	0	507	514	513	32	0	
6	0	0	0	0	0	506	512	508	32	0	
7	0	0	0	0	0	506	512	508	31	0	
8	0	0	0	0	0	505	513	509	31	0	
9	0	0	0	0	0	506	513	507	31	0	
10	0	0	0	0	0	506	512	507	31	0	
11	0	0	0	0	1	506	510	504	31	0	
12	0	0	0	0	4	504	511	506	31	0	
13	0	0	0	0	0	505	511	508	31	0	
14	0	0	0	0	0	504	513	509	31	0	
15	0	0	0	0	0	505	513	515	32	0	
0	0	0	0	0	0	504	513	513	32	0	
1	0	0	0	0	0	508	513	511	32	0	
2	0	0	0	0	0	506	512	511	31	0	
3	0	0	0	0	0	505	511	509	31	0	
4	0	0	0	0	2	507	513	507	31	0	
5	0	0	0	0	0	504	512	505	31	0	
6	0	0	0	0	0	504	512	508	31	0	
7	0	0	0	0	0	502	510	512	32	0	
8	0	0	0	0	0	503	513	511	31	0	
9	0	0	0	0	0	504	510	512	31	0	
10	0	0	0	0	0	504	512	510	31	0	
11	0	0	0	0	0	504	513	512	32	0	
12	0	0	0	0	2	505	515	510	31	0	
13	0	0	0	0	0	505	514	511	32	0	
14	0	0	0	0	0	507	513	511	31	0	
15	0	0	0	0	0	506	513	511	31	0	
0	0	0	0	0	0	505	514	508	31	0	
1	0	0	0	0	0	504	514	508	31	0	
2	0	0	0	0	0	505	511	511	31	0	
3	0	0	0	0	0	507	512	510	31	0	
4	0	0	0	0	2	507	511	508	31	0	
5	0	0	0	0	0	507	508	507	32	0	
6	0	0	0	0	0	509	511	510	31	0	
7	0	0	0	0	0	508	511	506	31	0	
8	0	0	0	0	0	508	510	504	31	0	
9	0	0	0	0	0	504	510	505	31	0	
