# OpenSignals Text File Format. Version 1
# {"98:D3:51:FE:6E:5C": {"position": 0, "device": "bitalino_rev", "device name": "98:D3:51:FE:6E:5C", "device connection": "BTH98:D3:51:FE:6E:5C", "sampling rate": 1000, "resolution": [4, 1, 1, 1, 1, 10, 10, 10, 10, 6, 6], "firmware version": 1282, "comments": "", "keywords": "", "mode": 0, "sync interval": 2, "date": "2026-6-12", "time": "12:44:27.830", "channels": [1, 2, 3, 4, 5, 6], "sensor": ["RAW", "RAW", "RAW", "RAW", "RAW", "RAW"], "label": ["A1", "A2", "A3", "A4", "A5", "A6"], "column": ["nSeq", "I1", "I2", "O1", "O2", "A1", "A2", "A3", "A4", "A5", "A6"], "special": [{}, {}, {}, {}, {}, {}], "digital IO": [0, 0, 1, 1]}}
# EndOfHeader
0	0	0	0	0	0	518	508	510	31	0	
1	0	0	0	0	0	514	507	508	31	0	
2	0	0	0	0	0	515	505	507	31	0	
3	0	0	0	0	0	514	508	511	32	0	
4	0	0	0	0	0	514	510	510	32	0	
5	0	0	0	0	0	512	512	508	31	0	
6	0	0	0	0	0	510	512	510	31	0	
7	0	0	0	0	2	515	510	509	31	0	
8	0	0	0	0	0	517	512	510	31	0	
9	0	0	0	0	0	520	511	511	32	0	
10	0	0	0	0	0	516	510	516	31	0	
11	0	0	0	0	0	515	508	512	31	0	
12	0	0	0	0	0	515	506	512	32	0	
13	0	0	0	0	0	515	508	509	32	0	
14	0	0	0	0	0	515	509	508	31	0	
15	0	0	0	0	2	509	508	509	32	0	
0	0	0	0	0	0	509	508	511	32	0	
1	0	0	0	0	0	510	509	511	31	0	
2	0	0	0	0	0	513	510	512	31	0	
3	0	0	0	0	0	516	512	510	31	0	
4	0	0	0	0	0	517	511	511	31	0	
5	0	0	0	0	0	516	512	509	31	0	
6	0	0	0	0	0	512	509	511	31	0	
7	0	0	0	0	1	510	509	517	32	0	
8	0	0	0	0	0	512	508	512	32	0	
9	0	0	0	0	0	513	511	508	32	0	
10	0	0	0	0	0	513	509	508	31	0	
11	0	0	0	0	0	515	507	510	31	0	
12	0	0	0	0	0	513	508	510	31	0	
13	0	0	0	0	0	512	506	511	32	0	
14	0	0	0	0	0	508	507	514	32	0	
15	0	0	0	0	0	511	508	513	32	0	
0	0	0	0	0	0	514	511	512	32	0	
1	0	0	0	0	0	516	510	512	32	0	
2	0	0	0	0	0	514	509	515	32	0	
3	0	0	0	0	0	510	511	519	32	0	
4	0	0	0	0	0	511	510	515	32	0	
5	0	0	0	0	0	513	510	512	32	0	
6	0	0	0	0	0	512	509	512	31	0	
7	0	0	0	0	1	513	509	510	31	0	
8	0	0	0	0	0	513	511	508	31	0	
9	0	0	0	0	0	515	512	510	31	0	
10	0	0	0	0	0	515	511	511	31	0	
11	0	0	0	0	0	516	511	510	31	0	
12	0	0	0	0	0	518	512	505	31	0	
13	0	0	0	0	0	517	512	510	32	0	
14	0	0	0	0	0	517	507	513	32	0	
15	0	0	0	0	2	517	508	513	32	0	
0	0	0	0	0	0	516	509	513	31	0	
1	0	0	0	0	0	515	508	512	31	0	
2	0	0	0	0	0	515	508	507	31	0	
3	0	0	0	0	0	512	508	505	31	0	
4	0	0	0	0	0	511	506	508	31	0	
5	0	0	0	0	0	510	508	510	31	0	
6	0	0	0	0	0	513	508	511	32	0	
7	0	0	0	0	2	516	511	513	31	0	
8	0	0	0	0	0	518	511	513	31	0	
9	0	0	0	0	0	515	512	513	32	0	
10	0	0	0	0	0	515	511	512	32	0	
11	0	0	0	0	0	516	510	511	32	0	
12	0	0	0	0	0	513	513	511	32	0	
13	0	0	0	0	0	517	512	511	32	0	
14	0	0	0	0	0	517	511	509	31	0	
15	0	0	0	0	2	515	509	511	31	0	
0	0	0	0	0	0	511	507	512	31	0	
1	0	0	0	0	0	512	503	517	32	0	
2	0	0	0	0	0	511	504	518	32	0	
3	0	0	0	0	0	512	505	513	32	0	
4	0	0	0	0	0	513	508	508	32	0	
5	0	0	0	0	0	512	508	510	32	0	
6	0	0	0	0	0	512	507	511	32	0	
7	0	0	0	0	2	511	511	511	32	0	
8	0	0	0	0	0	511	510	509	32	0	
9	0	0	0	0	0	515	509	510	31	0	
10	0	0	0	0	0	515	512	512	31	0	
11	0	0	0	0	0	516	509	511	31	0	
12	0	0	0	0	0	518	511	511	32	0	
13	0	0	0	0	0	515	512	511	32	0	
14	0	0	0	0	0	517	512	511	31	0	
15	0	0	0	0	2	516	512	507	31	0	
0	0	0	0	0	0	514	510	508	31	0	
1	0	0	0	0	0	512	512	510	31	0	
2	0	0	0	0	0	512	512	512	32	0	
3	0	0	0	0	0	513	511	512	32	0	
4	0	0	0	0	0	511	511	511	31	0	
5	0	0	0	0	0	513	510	513	31	0	
6	0	0	0	0	0	515	507	511	31	0	
7	0	0	0	0	2	515	505	511	31	0	
8	0	0	0	0	0	515	505	510	32	0	
9	0	0	0	0	0	512	507	511	32	0	
10	0	0	0	0	0	511	508	509	32	0	
11	0	0	0	0	0	509	510	508	31	0	
12	0	0	0	0	0	510	509	510	32	0	
13	0	0	0	0	0	511	508	515	32	0	
14	0	0	0	0	0	509	507	516	32	0	
15	0	0	0	0	2	511	508	516	32	0	
0	0	0	0	0	0	513	510	513	31	0	
1	0	0	0	0	0	515	510	509	31	0	
2	0	0	0	0	0	516	508	510	31	0	
3	0	0	0	0	0	516	504	511	32	0	
4	0	0	0	0	0	515	506	510	32	0	
5	0	0	0	0	0	517	513	513	32	0	
6	0	0	0	0	0	512	516	513	32	0	
7	0	0	0	0	2	512	512	515	32	0	
8	0	0	0	0	0	514	514	513	32	0	
9	0	0	0	0	0	515	514	514	32	0	
10	0	0	0	0	0	515	513	514	32	0	
11	0	0	0	0	0	516	511	512	31	0	
12	0	0	0	0	0	515	509	508	31	0	
13	0	0	0	0	0	516	507	507	31	0	
14	0	0	0	0	0	516	506	508	31	0	
15	0	0	0	0	2	514	506	508	31	0	
0	0	0	0	0	0	514	508	511	31	0	
1	0	0	0	0	0	512	510	512	31	0	
2	0	0	0	0	0	511	508	513	31	0	
3	0	0	0	0	0	513	510	511	32	0	
4	0	0	0	0	0	513	508	508	31	0	
5	0	0	0	0	0	518	509	506	31	0	
6	0	0	0	0	0	515	509	510	32	0	
7	0	0	0	0	2	515	511	515	32	0	
8	0	0	0	0	0	515	511	514	32	0	
9	0	0	0	0	0	519	510	512	32	0	
10	0	0	0	0	0	518	508	507	32	0	
11	0	0	0	0	0	516	509	506	32	0	
12	0	0	0	0	0	518	511	508	32	0	
13	0	0	0	0	0	518	511	507	31	0	
14	0	0	0	0	0	512	512	510	31	0	
15	0	0	0	0	2	510	508	511	32	0	
0	0	0	0	0	0	511	508	513	32	0	
1	0	0	0	0	0	510	508	516	32	0	
2	0	0	0	0	0	508	507	517	32	0	
3	0	0	0	0	0	512	510	520	32	0	
4	0	0	0	0	0	511	513	515	32	0	
5	0	0	0	0	0	515	509	512	31	0	
6	0	0	0	0	0	515	510	510	31	0	
7	0	0	0	0	1	513	506	510	31	0	
8	0	0	0	0	0	510	506	509	31	0	
9	0	0	0	0	0	510	508	508	31	0	
10	0	0	0	0	0	511	508	509	31	0	
11	0	0	0	0	0	512	510	508	32	0	
12	0	0	0	0	0	511	510	512	32	0	
13	0	0	0	0	0	510	506	511	32	0	
14	0	0	0	0	0	513	508	513	32	0	
15	0	0	0	0	1	514	509	509	31	0	
0	0	0	0	0	0	515	508	510	31	0	
1	0	0	0	0	0	519	507	505	31	0	
2	0	0	0	0	0	515	507	507	31	0	
3	0	0	0	0	0	515	508	512	32	0	
4	0	0	0	0	0	513	508	514	32	0	
5	0	0	0	0	0	515	510	513	32	0	
6	0	0	0	0	0	513	512	508	31	0	
7	0	0	0	0	1	516	513	507	31	0	
8	0	0	0	0	0	513	513	509	31	0	
9	0	0	0	0	0	514	514	512	31	0	
10	0	0	0	0	0	515	513	515	32	0	
11	0	0	0	0	0	515	513	515	32	0	
12	0	0	0	0	0	515	510	516	32	0	
13	0	0	0	0	0	512	510	518	32	0	
14	0	0	0	0	0	510	510	523	31	0	
15	0	0	0	0	2	511	508	533	32	0	
0	0	0	0	0	0	513	510	536	32	0	
1	0	0	0	0	0	514	511	529	32	0	
2	0	0	0	0	0	512	509	517	32	0	
3	0	0	0	0	0	515	509	503	32	0	
4	0	0	0	0	0	519	508	488	31	0	
5	0	0	0	0	0	518	508	483	31	0	
6	0	0	0	0	0	516	508	484	31	0	
7	0	0	0	0	2	512	507	492	31	0	
8	0	0	0	0	0	516	508	497	31	0	
9	0	0	0	0	0	517	511	502	31	0	
10	0	0	0	0	0	512	509	502	31	0	
11	0	0	0	0	0	513	509	510	31	0	
12	0	0	0	0	0	514	509	511	32	0	
13	0	0	0	0	0	515	508	512	31	0	
14	0	0	0	0	0	514	509	513	32	0	
15	0	0	0	0	2	511	507	514	32	0	
0	0	0	0	0	0	511	510	514	32	0	
1	0	0	0	0	0	513	508	513	32	0	
2	0	0	0	0	0	513	509	515	31	0	
3	0	0	0	0	0	515	509	514	31	0	
4	0	0	0	0	0	515	507	512	31	0	
5	0	0	0	0	0	515	508	513	31	0	
6	0	0	0	0	0	513	510	513	32	0	
7	0	0	0	0	2	512	508	518	32	0	
8	0	0	0	0	0	513	510	521	32	0	
9	0	0	0	0	0	512	511	524	32	0	
10	0	0	0	0	0	514	512	519	32	0	
11	0	0	0	0	0	516	510	519	32	0	
12	0	0	0	0	0	514	512	517	31	0	
13	0	0	0	0	0	515	511	513	31	0	
14	0	0	0	0	0	514	511	508	31	0	
15	0	0	0	0	2	515	511	503	31	0	
0	0	0	0	0	0	515	509	498	31	0	
1	0	0	0	0	0	512	510	499	31	0	
2	0	0	0	0	0	511	510	504	31	0	
3	0	0	0	0	0	514	508	507	31	0	
4	0	0	0	0	0	515	507	507	31	0	
5	0	0	0	0	0	514	508	512	31	0	
6	0	0	0	0	0	513	507	521	32	0	
7	0	0	0	0	2	512	510	520	32	0	
8	0	0	0	0	0	512	509	515	32	0	
9	0	0	0	0	0	514	507	513	32	0	
10	0	0	0	0	0	513	509	511	32	0	
11	0	0	0	0	0	514	511	511	32	0	
12	0	0	0	0	0	513	510	509	32	0	
13	0	0	0	0	0	514	511	512	32	0	
14	0	0	0	0	0	515	509	513	32	0	
15	0	0	0	0	2	514	510	514	32	0	
0	0	0	0	0	0	514	508	515	32	0	
1	0	0	0	0	0	513	508	511	31	0	
2	0	0	0	0	0	515	509	505	32	0	
3	0	0	0	0	0	514	507	503	32	0	
4	0	0	0	0	0	515	511	508	31	0	
5	0	0	0	0	0	515	510	510	32	0	
6	0	0	0	0	0	516	509	513	32	0	
7	0	0	0	0	2	515	509	518	32	0	
8	0	0	0	0	0	515	510	519	32	0	
9	0	0	0	0	0	512	511	519	32	0	
10	0	0	0	0	0	513	510	515	31	0	
11	0	0	0	0	0	513	513	510	31	0	
12	0	0	0	0	0	515	512	501	31	0	
13	0	0	0	0	0	513	513	500	31	0	
14	0	0	0	0	0	513	513	505	31	0	
15	0	0	0	0	2	515	511	499	31	0	
0	0	0	0	0	0	514	511	500	31	0	
1	0	0	0	0	0	515	506	510	32	0	
2	0	0	0	0	0	512	505	518	32	0	
3	0	0	0	0	0	513	504	519	32	0	
4	0	0	0	0	0	514	503	520	32	0	
5	0	0	0	0	0	513	505	527	32	0	
6	0	0	0	0	0	512	505	524	32	0	
7	0	0	0	0	2	512	509	518	32	0	
8	0	0	0	0	0	514	510	510	32	0	
9	0	0	0	0	0	515	511	503	31	0	
10	0	0	0	0	0	515	511	498	31	0	
11	0	0	0	0	0	512	510	492	31	0	
12	0	0	0	0	0	516	511	489	31	0	
13	0	0	0	0	0	512	511	495	31	0	
14	0	0	0	0	0	511	511	506	31	0	
15	0	0	0	0	2	513	509	509	31	0	
0	0	0	0	0	0	513	508	516	32	0	
1	0	0	0	0	0	513	508	519	32	0	
2	0	0	0	0	0	515	507	515	32	0	
3	0	0	0	0	0	514	510	516	32	0	
4	0	0	0	0	0	513	510	518	31	0	
5	0	0	0	0	0	515	509	517	31	0	
6	0	0	0	0	0	515	507	515	32	0	
7	0	0	0	0	1	515	508	514	32	0	
8	0	0	0	0	0	514	509	513	32	0	
9	0	0	0	0	0	516	513	511	32	0	
10	0	0	0	0	0	514	511	513	32	0	
11	0	0	0	0	0	515	511	514	32	0	
12	0	0	0	0	0	515	510	513	32	0	
13	0	0	0	0	0	518	512	515	31	0	
14	0	0	0	0	0	517	510	513	32	0	
15	0	0	0	0	1	512	510	512	32	0	
0	0	0	0	0	0	513	508	511	32	0	
1	0	0	0	0	0	510	508	510	32	0	
2	0	0	0	0	0	508	510	512	32	0	
3	0	0	0	0	0	510	508	513	32	0	
4	0	0	0	0	0	511	508	514	31	0	
5	0	0	0	0	0	514	508	508	31	0	
6	0	0	0	0	0	514	508	509	31	0	
7	0	0	0	0	2	514	505	507	31	0	
8	0	0	0	0	0	514	507	509	32	0	
9	0	0	0	0	0	516	511	511	32	0	
10	0	0	0	0	0	515	510	513	31	0	
11	0	0	0	0	0	515	507	512	31	0	
12	0	0	0	0	0	514	510	513	32	0	
13	0	0	0	0	0	513	512	511	32	0	
14	0	0	0	0	0	513	510	511	32	0	
15	0	0	0	0	2	511	509	512	32	0	
0	0	0	0	0	0	511	509	511	32	0	
1	0	0	0	0	0	509	512	511	32	0	
2	0	0	0	0	0	513	512	511	31	0	
3	0	0	0	0	0	514	509	511	31	0	
4	0	0	0	0	0	516	508	509	31	0	
5	0	0	0	0	0	516	509	509	31	0	
6	0	0	0	0	0	515	508	508	31	0	
7	0	0	0	0	2	519	510	508	32	0	
8	0	0	0	0	0	516	508	509	31	0	
9	0	0	0	0	0	517	508	513	32	0	
10	0	0	0	0	0	516	509	513	31	0	
11	0	0	0	0	0	516	510	513	31	0	
12	0	0	0	0	0	513	511	511	31	0	
13	0	0	0	0	0	512	512	512	31	0	
14	0	0	0	0	0	511	512	511	32	0	
15	0	0	0	0	2	511	511	512	32	0	
0	0	0	0	0	0	512	510	511	32	0	
1	0	0	0	0	0	511	509	513	32	0	
2	0	0	0	0	0	512	509	513	32	0	
3	0	0	0	0	0	513	508	514	32	0	
4	0	0	0	0	0	514	507	513	31	0	
5	0	0	0	0	0	513	506	517	31	0	
6	0	0	0	0	0	516	508	515	31	0	
7	0	0	0	0	2	516	510	511	31	0	
8	0	0	0	0	0	516	511	510	32	0	
9	0	0	0	0	0	515	510	506	31	0	
10	0	0	0	0	0	514	507	500	31	0	
11	0	0	0	0	0	513	509	502	32	0	
12	0	0	0	0	0	513	509	507	32	0	
13	0	0	0	0	0	511	510	511	32	0	
14	0	0	0	0	0	511	511	510	32	0	
15	0	0	0	0	2	513	510	511	32	0	
0	0	0	0	0	0	514	509	510	31	0	
1	0	0	0	0	0	515	509	508	31	0	
2	0	0	0	0	0	516	511	508	31	0	
3	0	0	0	0	0	515	509	510	31	0	
4	0	0	0	0	0	511	512	510	31	0	
5	0	0	0	0	0	516	512	515	32	0	
6	0	0	0	0	0	515	508	513	32	0	
7	0	0	0	0	2	515	510	514	32	0	
8	0	0	0	0	0	516	508	518	31	0	
9	0	0	0	0	0	515	510	516	31	0	
10	0	0	0	0	0	515	507	519	31	0	
11	0	0	0	0	0	512	504	515	32	0	
12	0	0	0	0	0	512	505	510	31	0	
13	0	0	0	0	0	513	505	510	32	0	
14	0	0	0	0	0	513	508	505	31	0	
15	0	0	0	0	2	513	510	506	32	0	
0	0	0	0	0	0	514	511	505	32	0	
1	0	0	0	0	0	514	512	508	32	0	
2	0	0	0	0	0	511	510	507	31	0	
3	0	0	0	0	0	510	509	507	31	0	
4	0	0	0	0	0	512	510	507	31	0	
5	0	0	0	0	0	513	507	507	32	0	
6	0	0	0	0	0	515	508	510	31	0	
7	0	0	0	0	2	513	509	516	31	0	
8	0	0	0	0	0	515	511	518	31	0	
9	0	0	0	0	0	512	510	519	32	0	
10	0	0	0	0	0	512	510	519	32	0	
11	0	0	0	0	0	512	509	518	32	0	
12	0	0	0	0	0	513	510	514	32	0	
13	0	0	0	0	0	513	511	510	32	0	
14	0	0	0	0	0	513	510	508	32	0	
15	0	0	0	0	2	513	508	511	32	0	
0	0	0	0	0	0	514	511	509	32	0	
1	0	0	0	0	0	515	512	506	32	0	
2	0	0	0	0	0	514	512	507	31	0	
3	0	0	0	0	0	514	513	509	31	0	
4	0	0	0	0	0	516	512	510	32	0	
5	0	0	0	0	0	514	510	511	31	0	
6	0	0	0	0	0	517	508	511	31	0	
7	0	0	0	0	2	518	511	512	31	0	
8	0	0	0	0	0	516	510	511	31	0	
9	0	0	0	0	0	516	509	511	31	0	
10	0	0	0	0	0	515	508	511	31	0	
11	0	0	0	0	0	512	507	511	31	0	
12	0	0	0	0	0	512	509	507	31	0	
13	0	0	0	0	0	511	505	507	31	0	
14	0	0	0	0	0	511	508	505	31	0	
15	0	0	0	0	1	510	508	508	31	0	
0	0	0	0	0	0	509	511	511	31	0	
1	0	0	0	0	0	512	511	512	31	0	
2	0	0	0	0	0	513	510	513	32	0	
3	0	0	0	0	0	512	510	516	32	0	
4	0	0	0	0	0	513	510	517	32	0	
5	0	0	0	0	0	515	511	517	32	0	
6	0	0	0	0	0	516	512	515	32	0	
7	0	0	0	0	1	515	509	512	31	0	
8	0	0	0	0	0	515	509	512	32	0	
9	0	0	0	0	0	516	508	511	32	0	
10	0	0	0	0	0	514	509	508	32	0	
11	0	0	0	0	0	513	509	511	31	0	
12	0	0	0	0	0	515	507	512	32	0	
13	0	0	0	0	0	516	508	511	32	0	
14	0	0	0	0	0	518	509	515	32	0	
15	0	0	0	0	1	514	508	517	32	0	
0	0	0	0	0	0	516	508	514	31	0	
1	0	0	0	0	0	514	510	511	31	0	
2	0	0	0	0	0	516	511	509	32	0	
3	0	0	0	0	0	513	512	509	31	0	
4	0	0	0	0	0	513	511	509	31	0	
5	0	0	0	0	0	512	511	510	31	0	
6	0	0	0	0	0	512	509	509	31	0	
7	0	0	0	0	2	513	509	511	32	0	
8	0	0	0	0	0	513	509	514	31	0	
9	0	0	0	0	0	510	509	513	32	0	
10	0	0	0	0	0	513	510	512	31	0	
11	0	0	0	0	0	515	511	512	31	0	
12	0	0	0	0	0	518	508	512	31	0	
13	0	0	0	0	0	516	508	513	31	0	
14	0	0	0	0	0	517	508	508	32	0	
15	0	0	0	0	2	514	510	509	32	0	
0	0	0	0	0	0	509	508	510	32	0	
1	0	0	0	0	0	511	508	510	32	0	
2	0	0	0	0	0	514	512	512	31	0	
3	0	0	0	0	0	512	514	514	31	0	
4	0	0	0	0	0	511	513	515	31	0	
5	0	0	0	0	0	514	512	510	31	0	
6	0	0	0	0	0	513	510	510	31	0	
7	0	0	0	0	2	515	509	511	32	0	
8	0	0	0	0	0	514	507	509	31	0	
9	0	0	0	0	0	516	502	508	31	0	
10	0	0	0	0	0	516	504	511	32	0	
11	0	0	0	0	0	515	508	513	31	0	
12	0	0	0	0	0	515	507	513	32	0	
13	0	0	0	0	0	514	508	514	32	0	
14	0	0	0	0	0	515	508	514	32	0	
15	0	0	0	0	2	514	510	513	32	0	
0	0	0	0	0	0	513	510	510	32	0	
1	0	0	0	0	0	514	511	507	31	0	
2	0	0	0	0	0	516	510	508	31	0	
3	0	0	0	0	0	515	511	508	32	0	
4	0	0	0	0	0	514	510	508	32	0	
5	0	0	0	0	0	512	508	510	32	0	
6	0	0	0	0	0	510	510	510	32	0	
7	0	0	0	0	2	508	511	510	32	0	
8	0	0	0	0	0	510	511	510	31	0	
9	0	0	0	0	0	510	508	510	32	0	
10	0	0	0	0	0	512	510	514	31	0	
11	0	0	0	0	0	515	508	512	31	0	
12	0	0	0	0	0	516	506	512	32	0	
13	0	0	0	0	0	515	509	512	32	0	
14	0	0	0	0	0	512	511	508	32	0	
15	0	0	0	0	2	512	511	514	32	0	
0	0	0	0	0	0	514	513	519	32	0	
1	0	0	0	0	0	517	513	515	32	0	
2	0	0	0	0	0	515	513	513	32	0	
3	0	0	0	0	0	516	512	509	32	0	
4	0	0	0	0	0	518	508	508	32	0	
5	0	0	0	0	0	515	510	505	32	0	
6	0	0	0	0	0	517	507	506	32	0	
7	0	0	0	0	2	516	508	504	31	0	
8	0	0	0	0	0	515	507	510	31	0	
9	0	0	0	0	0	512	509	510	32	0	
10	0	0	0	0	0	513	509	512	32	0	
11	0	0	0	0	0	512	509	510	31	0	
12	0	0	0	0	0	514	508	509	31	0	
13	0	0	0	0	0	515	505	512	32	0	
14	0	0	0	0	0	515	505	512	32	0	
15	0	0	0	0	2	517	508	512	32	0	
0	0	0	0	0	0	513	510	516	32	0	
1	0	0	0	0	0	513	511	518	32	0	
2	0	0	0	0	0	512	511	514	32	0	
3	0	0	0	0	0	514	512	512	32	0	
4	0	0	0	0	0	515	516	515	32	0	
5	0	0	0	0	0	513	516	511	32	0	
6	0	0	0	0	0	514	514	510	31	0	
7	0	0	0	0	2	514	511	511	31	0	
8	0	0	0	0	0	512	507	509	31	0	
9	0	0	0	0	0	515	504	510	31	0	
10	0	0	0	0	0	512	504	513	32	0	
11	0	0	0	0	0	511	507	513	32	0	
12	0	0	0	0	0	513	506	512	31	0	
13	0	0	0	0	0	514	505	511	32	0	
14	0	0	0	0	0	513	506	511	32	0	
15	0	0	0	0	2	515	510	512	32	0	
0	0	0	0	0	0	515	509	509	32	0	
1	0	0	0	0	0	518	513	511	31	0	
2	0	0	0	0	0	515	512	509	31	0	
3	0	0	0	0	0	514	510	509	31	0	
4	0	0	0	0	0	513	508	510	31	0	
5	0	0	0	0	0	515	511	506	31	0	
6	0	0	0	0	0	511	511	508	31	0	
7	0	0	0	0	2	512	508	508	31	0	
8	0	0	0	0	0	510	506	511	32	0	
9	0	0	0	0	0	513	508	510	32	0	
10	0	0	0	0	0	511	508	512	32	0	
11	0	0	0	0	0	513	508	516	32	0	
12	0	0	0	0	0	515	511	514	32	0	
13	0	0	0	0	0	514	510	513	32	0	
14	0	0	0	0	0	514	507	512	32	0	
15	0	0	0	0	1	517	507	510	32	0	
0	0	0	0	0	0	518	508	512	32	0	
1	0	0	0	0	0	512	508	515	32	0	
2	0	0	0	0	0	510	510	515	32	0	
3	0	0	0	0	0	514	511	512	32	0	
4	0	0	0	0	0	513	511	510	32	0	
5	0	0	0	0	0	515	512	507	31	0	
6	0	0	0	0	0	512	514	508	31	0	
7	0	0	0	0	1	513	511	511	31	0	
8	0	0	0	0	0	513	512	510	32	0	
9	0	0	0	0	0	510	510	508	31	0	
10	0	0	0	0	0	512	508	511	31	0	
11	0	0	0	0	0	511	508	511	31	0	
12	0	0	0	0	0	515	506	510	31	0	
13	0	0	0	0	0	512	509	513	32	0	
14	0	0	0	0	0	512	509	515	32	0	
15	0	0	0	0	1	514	511	517	32	0	
0	0	0	0	0	0	516	511	514	32	0	
1	0	0	0	0	0	519	510	510	31	0	
2	0	0	0	0	0	517	509	510	31	0	
3	0	0	0	0	0	516	508	510	31	0	
4	0	0	0	0	0	514	509	512	31	0	
5	0	0	0	0	0	514	509	513	32	0	
6	0	0	0	0	0	513	511	512	32	0	
7	0	0	0	0	2	513	509	512	32	0	
8	0	0	0	0	0	514	511	512	31	0	
9	0	0	0	0	0	513	510	514	31	0	
10	0	0	0	0	0	515	508	508	31	0	
11	0	0	0	0	0	514	507	510	31	0	
12	0	0	0	0	0	514	508	506	32	0	
13	0	0	0	0	0	515	508	505	32	0	
14	0	0	0	0	0	515	508	506	32	0	
15	0	0	0	0	2	512	508	511	32	0	
0	0	0	0	0	0	512	507	515	32	0	
1	0	0	0	0	0	514	511	513	32	0	
2	0	0	0	0	0	514	514	511	31	0	
3	0	0	0	0	0	515	512	509	32	0	
4	0	0	0	0	0	513	508	511	32	0	
5	0	0	0	0	0	515	511	512	32	0	
6	0	0	0	0	0	513	512	513	32	0	
7	0	0	0	0	2	511	512	513	31	0	
8	0	0	0	0	0	511	512	512	32	0	
9	0	0	0	0	0	513	510	508	31	0	
10	0	0	0	0	0	514	508	509	31	0	
11	0	0	0	0	0	513	512	511	31	0	
12	0	0	0	0	0	512	510	510	31	0	
13	0	0	0	0	0	513	510	519	31	0	
14	0	0	0	0	0	515	507	519	32	0	
15	0	0	0	0	2	514	509	519	32	0	
0	0	0	0	0	0	515	509	516	32	0	
1	0	0	0	0	0	515	507	511	32	0	
2	0	0	0	0	0	517	510	505	32	0	
3	0	0	0	0	0	513	508	500	32	0	
4	0	0	0	0	0	513	508	502	32	0	
5	0	0	0	0	0	515	509	506	32	0	
6	0	0	0	0	0	515	509	505	31	0	
7	0	0	0	0	2	513	510	508	32	0	
8	0	0	0	0	0	512	511	511	31	0	
9	0	0	0	0	0	510	513	511	31	0	
10	0	0	0	0	0	509	512	513	31	0	
11	0	0	0	0	0	511	511	515	31	0	
12	0	0	0	0	0	515	510	512	31	0	
13	0	0	0	0	0	517	509	513	31	0	
14	0	0	0	0	0	516	506	511	31	0	
15	0	0	0	0	2	516	508	511	32	0	
0	0	0	0	0	0	514	507	515	32	0	
1	0	0	0	0	0	516	505	516	32	0	
2	0	0	0	0	0	514	507	514	31	0	
3	0	0	0	0	0	516	511	512	32	0	
4	0	0	0	0	0	515	512	515	32	0	
5	0	0	0	0	0	515	512	512	32	0	
6	0	0	0	0	0	515	510	513	32	0	
7	0	0	0	0	2	513	508	510	31	0	
8	0	0	0	0	0	512	509	508	31	0	
9	0	0	0	0	0	511	508	507	32	0	
10	0	0	0	0	0	512	508	510	31	0	
11	0	0	0	0	0	512	508	509	31	0	
12	0	0	0	0	0	512	509	512	31	0	
13	0	0	0	0	0	515	512	514	31	0	
14	0	0	0	0	0	514	510	511	32	0	
15	0	0	0	0	2	517	511	513	32	0	
0	0	0	0	0	0	513	511	515	31	0	
1	0	0	0	0	0	515	507	513	31	0	
2	0	0	0	0	0	519	508	510	31	0	
3	0	0	0	0	0	517	508	507	32	0	
4	0	0	0	0	0	516	508	504	32	0	
5	0	0	0	0	0	512	509	503	32	0	
6	0	0	0	0	0	512	509	505	32	0	
7	0	0	0	0	2	514	510	508	31	0	
8	0	0	0	0	0	515	514	512	32	0	
9	0	0	0	0	0	516	513	514	32	0	
10	0	0	0	0	0	514	512	517	32	0	
11	0	0	0	0	0	512	510	513	32	0	
12	0	0	0	0	0	511	509	511	32	0	
13	0	0	0	0	0	513	510	510	31	0	
14	0	0	0	0	0	513	510	508	31	0	
15	0	0	0	0	2	515	512	512	31	0	
0	0	0	0	0	0	513	508	512	31	0	
1	0	0	0	0	0	512	508	513	31	0	
2	0	0	0	0	0	514	507	516	31	0	
3	0	0	0	0	0	512	507	514	32	0	
4	0	0	0	0	0	513	508	513	32	0	
5	0	0	0	0	0	511	509	510	32	0	
6	0	0	0	0	0	515	512	508	31	0	
7	0	0	0	0	2	514	510	503	31	0	
8	0	0	0	0	0	515	509	505	31	0	
9	0	0	0	0	0	516	511	509	31	0	
10	0	0	0	0	0	514	510	513	31	0	
11	0	0	0	0	0	516	508	515	32	0	
12	0	0	0	0	0	516	508	512	32	0	
13	0	0	0	0	0	517	508	512	32	0	
14	0	0	0	0	0	516	507	515	31	0	
15	0	0	0	0	1	511	507	515	31	0	
0	0	0	0	0	0	514	509	515	32	0	
1	0	0	0	0	0	512	510	511	31	0	
2	0	0	0	0	0	513	508	511	32	0	
3	0	0	0	0	0	512	507	509	32	0	
4	0	0	0	0	0	512	508	505	32	0	
5	0	0	0	0	0	512	508	504	32	0	
6	0	0	0	0	0	509	509	508	32	0	
7	0	0	0	0	1	508	511	513	32	0	
8	0	0	0	0	0	511	515	513	32	0	
9	0	0	0	0	0	511	513	513	32	0	
10	0	0	0	0	0	513	513	514	32	0	
11	0	0	0	0	0	515	512	513	32	0	
12	0	0	0	0	0	516	513	513	31	0	
13	0	0	0	0	0	516	511	513	31	0	
14	0	0	0	0	0	516	509	510	31	0	
15	0	0	0	0	2	516	506	512	31	0	
0	0	0	0	0	0	515	507	513	31	0	
1	0	0	0	0	0	516	505	512	32	0	
2	0	0	0	0	0	519	509	510	32	0	
3	0	0	0	0	0	517	505	506	31	0	
4	0	0	0	0	0	516	509	506	31	0	
5	0	0	0	0	0	514	509	507	31	0	
6	0	0	0	0	0	513	510	506	32	0	
7	0	0	0	0	2	512	511	510	31	0	
8	0	0	0	0	0	511	509	512	32	0	
9	0	0	0	0	0	510	511	513	32	0	
10	0	0	0	0	0	511	511	512	32	0	
11	0	0	0	0	0	513	512	514	32	0	
12	0	0	0	0	0	514	512	513	32	0	
13	0	0	0	0	0	512	515	514	31	0	
14	0	0	0	0	0	514	512	513	31	0	
15	0	0	0	0	2	516	510	512	31	0	
0	0	0	0	0	0	515	510	510	31	0	
1	0	0	0	0	0	517	511	510	31	0	
2	0	0	0	0	0	514	508	508	31	0	
3	0	0	0	0	0	515	509	509	31	0	
4	0	0	0	0	0	514	508	510	32	0	
5	0	0	0	0	0	513	508	510	32	0	
6	0	0	0	0	0	513	507	511	31	0	
7	0	0	0	0	2	514	506	514	31	0	
8	0	0	0	0	0	514	505	512	32	0	
9	0	0	0	0	0	513	506	510	32	0	
10	0	0	0	0	0	515	511	510	32	0	
11	0	0	0	0	0	514	509	512	32	0	
12	0	0	0	0	0	514	508	513	32	0	
13	0	0	0	0	0	515	508	515	32	0	
14	0	0	0	0	0	513	509	514	31	0	
15	0	0	0	0	2	512	509	513	31	0	
0	0	0	0	0	0	514	509	511	31	0	
1	0	0	0	0	0	513	508	511	32	0	
2	0	0	0	0	0	511	510	511	32	0	
3	0	0	0	0	0	512	508	513	32	0	
4	0	0	0	0	0	514	511	514	32	0	
5	0	0	0	0	0	513	508	514	32	0	
6	0	0	0	0	0	512	509	509	31	0	
7	0	0	0	0	2	514	511	511	31	0	
8	0	0	0	0	0	515	510	510	32	0	
9	0	0	0	0	0	515	509	507	31	0	
10	0	0	0	0	0	515	510	508	32	0	
11	0	0	0	0	0	512	510	508	32	0	
12	0	0	0	0	0	513	511	511	32	0	
13	0	0	0	0	0	513	511	514	32	0	
14	0	0	0	0	0	515	512	512	32	0	
15	0	0	0	0	2	514	512	515	32	0	
0	0	0	0	0	0	512	511	516	31	0	
1	0	0	0	0	0	516	512	514	31	0	
2	0	0	0	0	0	514	510	515	31	0	
3	0	0	0	0	0	515	508	510	31	0	
4	0	0	0	0	0	515	508	507	31	0	
5	0	0	0	0	0	513	510	505	31	0	
6	0	0	0	0	0	515	508	505	31	0	
7	0	0	0	0	2	515	505	505	32	0	
8	0	0	0	0	0	516	507	505	32	0	
9	0	0	0	0	0	516	510	510	32	0	
10	0	0	0	0	0	513	508	509	32	0	
11	0	0	0	0	0	514	510	509	32	0	
12	0	0	0	0	0	514	510	510	32	0	
13	0	0	0	0	0	513	512	512	31	0	
14	0	0	0	0	0	510	514	516	32	0	
15	0	0	0	0	2	511	512	518	32	0	
0	0	0	0	0	0	512	508	518	32	0	
1	0	0	0	0	0	515	507	520	32	0	
2	0	0	0	0	0	514	509	521	32	0	
3	0	0	0	0	0	517	509	524	32	0	
4	0	0	0	0	0	516	508	519	32	0	
5	0	0	0	0	0	517	507	513	31	0	
6	0	0	0	0	0	514	510	506	32	0	
7	0	0	0	0	2	511	512	500	32	0	
8	0	0	0	0	0	511	509	494	31	0	
9	0	0	0	0	0	512	511	494	31	0	
10	0	0	0	0	0	512	511	498	31	0	
11	0	0	0	0	0	512	509	500	31	0	
12	0	0	0	0	0	513	511	509	31	0	
13	0	0	0	0	0	514	511	510	32	0	
14	0	0	0	0	0	515	509	514	31	0	
15	0	0	0	0	2	511	508	516	31	0	
0	0	0	0	0	0	511	508	517	31	0	
1	0	0	0	0	0	511	510	518	32	0	
2	0	0	0	0	0	511	508	512	32	0	
3	0	0	0	0	0	511	509	511	32	0	
4	0	0	0	0	0	513	508	511	32	0	
5	0	0	0	0	0	516	509	512	31	0	
6	0	0	0	0	0	515	510	513	31	0	
7	0	0	0	0	1	517	509	514	31	0	
8	0	0	0	0	0	518	508	514	31	0	
9	0	0	0	0	0	516	509	512	31	0	
10	0	0	0	0	0	516	510	512	32	0	
11	0	0	0	0	0	519	510	509	32	0	
12	0	0	0	0	0	517	512	511	32	0	
13	0	0	0	0	0	516	512	510	32	0	
14	0	0	0	0	0	515	509	513	32	0	
15	0	0	0	0	1	513	508	511	32	0	
0	0	0	0	0	0	511	507	514	32	0	
1	0	0	0	0	0	510	508	512	32	0	
2	0	0	0	0	0	514	507	508	31	0	
3	0	0	0	0	0	515	509	508	31	0	
4	0	0	0	0	0	517	509	511	32	0	
5	0	0	0	0	0	512	508	511	32	0	
6	0	0	0	0	0	513	511	513	32	0	
7	0	0	0	0	1	513	509	511	31	0	
8	0	0	0	0	0	515	510	510	31	0	
9	0	0	0	0	0	513	508	510	32	0	
10	0	0	0	0	0	514	511	511	31	0	
11	0	0	0	0	0	513	511	512	31	0	
12	0	0	0	0	0	511	513	511	31	0	
13	0	0	0	0	0	512	512	510	31	0	
14	0	0	0	0	0	511	512	507	32	0	
15	0	0	0	0	2	512	509	507	32	0	
0	0	0	0	0	0	512	509	512	32	0	
1	0	0	0	0	0	512	512	513	32	0	
2	0	0	0	0	0	515	508	514	32	0	
3	0	0	0	0	0	515	510	516	32	0	
4	0	0	0	0	0	514	508	517	32	0	
5	0	0	0	0	0	515	507	517	31	0	
6	0	0	0	0	0	514	510	515	31	0	
7	0	0	0	0	2	518	508	515	31	0	
8	0	0	0	0	0	515	507	513	32	0	
9	0	0	0	0	0	512	507	507	31	0	
10	0	0	0	0	0	510	505	503	31	0	
11	0	0	0	0	0	513	508	504	31	0	
12	0	0	0	0	0	515	511	505	31	0	
13	0	0	0	0	0	515	508	505	32	0	
14	0	0	0	0	0	512	508	509	32	0	
15	0	0	0	0	2	513	511	509	32	0	
0	0	0	0	0	0	513	509	511	31	0	
1	0	0	0	0	0	513	508	515	31	0	
2	0	0	0	0	0	517	509	515	32	0	
3	0	0	0	0	0	518	512	513	32	0	
4	0	0	0	0	0	519	510	514	31	0	
5	0	0	0	0	0	519	511	510	31	0	
6	0	0	0	0	0	519	508	511	31	0	
7	0	0	0	0	2	514	510	512	31	0	
8	0	0	0	0	0	515	509	511	32	0	
9	0	0	0	0	0	513	509	512	31	0	
10	0	0	0	0	0	511	507	510	31	0	
11	0	0	0	0	0	512	506	508	32	0	
12	0	0	0	0	0	512	505	507	31	0	
13	0	0	0	0	0	511	510	510	32	0	
14	0	0	0	0	0	513	512	510	32	0	
15	0	0	0	0	2	512	511	508	32	0	
0	0	0	0	0	0	513	511	510	31	0	
1	0	0	0	0	0	513	511	512	31	0	
2	0	0	0	0	0	514	512	512	32	0	
3	0	0	0	0	0	513	511	517	32	0	
4	0	0	0	0	0	513	511	517	32	0	
5	0	0	0	0	0	516	511	518	32	0	
6	0	0	0	0	0	515	507	516	31	0	
7	0	0	0	0	2	518	508	512	31	0	
8	0	0	0	0	0	515	507	508	31	0	
9	0	0	0	0	0	514	508	508	31	0	
10	0	0	0	0	0	515	508	508	31	0	
11	0	0	0	0	0	513	508	512	31	0	
12	0	0	0	0	0	515	507	509	31	0	
13	0	0	0	0	0	513	509	511	31	0	
14	0	0	0	0	0	515	508	513	31	0	
15	0	0	0	0	2	515	510	519	32	0	
0	0	0	0	0	0	513	510	518	32	0	
1	0	0	0	0	0	514	510	513	32	0	
2	0	0	0	0	0	513	509	508	32	0	
3	0	0	0	0	0	514	509	504	32	0	
4	0	0	0	0	0	515	510	500	31	0	
5	0	0	0	0	0	512	508	499	31	0	
6	0	0	0	0	0	513	511	501	32	0	
7	0	0	0	0	2	515	512	507	31	0	
8	0	0	0	0	0	515	511	511	32	0	
9	0	0	0	0	0	513	511	513	31	0	
10	0	0	0	0	0	514	510	511	32	0	
11	0	0	0	0	0	512	507	513	32	0	
12	0	0	0	0	0	514	505	513	32	0	
13	0	0	0	0	0	512	508	513	31	0	
14	0	0	0	0	0	511	509	511	31	0	
15	0	0	0	0	2	510	510	511	32	0	
0	0	0	0	0	0	510	511	516	32	0	
1	0	0	0	0	0	512	514	516	32	0	
2	0	0	0	0	0	514	510	518	31	0	
3	0	0	0	0	0	515	509	513	32	0	
4	0	0	0	0	0	519	508	511	32	0	
5	0	0	0	0	0	519	509	510	32	0	
6	0	0	0	0	0	516	510	507	32	0	
7	0	0	0	0	2	517	511	510	32	0	
8	0	0	0	0	0	514	512	510	32	0	
9	0	0	0	0	0	512	514	510	32	0	
10	0	0	0	0	0	512	513	512	32	0	
11	0	0	0	0	0	512	510	512	31	0	
12	0	0	0	0	0	512	509	515	31	0	
13	0	0	0	0	0	513	507	515	32	0	
14	0	0	0	0	0	510	504	512	32	0	
15	0	0	0	0	2	512	505	512	32	0	
0	0	0	0	0	0	516	509	512	31	0	
1	0	0	0	0	0	516	507	511	32	0	
2	0	0	0	0	0	517	509	505	32	0	
3	0	0	0	0	0	515	512	508	32	0	
4	0	0	0	0	0	513	513	508	32	0	
5	0	0	0	0	0	512	513	510	31	0	
6	0	0	0	0	0	516	510	513	31	0	
7	0	0	0	0	1	516	510	512	31	0	
8	0	0	0	0	0	515	510	511	31	0	
9	0	0	0	0	0	514	508	512	31	0	
10	0	0	0	0	0	515	507	513	32	0	
11	0	0	0	0	0	512	509	511	32	0	
12	0	0	0	0	0	510	508	511	32	0	
13	0	0	0	0	0	511	508	508	31	0	
14	0	0	0	0	0	510	509	508	31	0	
15	0	0	0	0	1	512	510	513	31	0	
0	0	0	0	0	0	512	510	516	31	0	
1	0	0	0	0	0	516	512	517	32	0	
2	0	0	0	0	0	515	512	518	32	0	
3	0	0	0	0	0	514	513	512	32	0	
4	0	0	0	0	0	515	509	511	32	0	
5	0	0	0	0	0	511	509	511	32	0	
6	0	0	0	0	0	512	510	509	31	0	
7	0	0	0	0	1	513	508	507	31	0	
8	0	0	0	0	0	515	508	509	31	0	
9	0	0	0	0	0	516	510	507	31	0	
10	0	0	0	0	0	517	511	510	31	0	
11	0	0	0	0	0	515	510	517	32	0	
12	0	0	0	0	0	516	512	518	32	0	
13	0	0	0	0	0	516	510	515	31	0	
14	0	0	0	0	0	518	508	508	32	0	
15	0	0	0	0	3	516	508	497	32	0	
0	0	0	0	0	0	518	505	494	32	0	
1	0	0	0	0	0	512	509	500	31	0	
2	0	0	0	0	0	511	508	503	31	0	
3	0	0	0	0	0	511	512	508	31	0	
4	0	0	0	0	0	509	512	513	31	0	
5	0	0	0	0	0	512	511	515	31	0	
6	0	0	0	0	0	511	507	513	31	0	
7	0	0	0	0	2	513	508	515	32	0	
8	0	0	0	0	0	514	505	515	32	0	
9	0	0	0	0	0	513	507	513	32	0	
10	0	0	0	0	0	512	505	517	31	0	
11	0	0	0	0	0	511	507	521	32	0	
12	0	0	0	0	0	512	507	513	31	0	
13	0	0	0	0	0	517	508	510	31	0	
14	0	0	0	0	0	516	507	508	32	0	
15	0	0	0	0	2	516	508	507	32	0	
0	0	0	0	0	0	516	512	507	32	0	
1	0	0	0	0	0	513	513	509	32	0	
2	0	0	0	0	0	516	513	509	31	0	
3	0	0	0	0	0	517	510	512	31	0	
4	0	0	0	0	0	517	513	513	32	0	
5	0	0	0	0	0	515	510	512	31	0	
6	0	0	0	0	0	515	509	514	31	0	
7	0	0	0	0	2	514	508	513	31	0	
8	0	0	0	0	0	515	510	513	31	0	
9	0	0	0	0	0	513	508	512	32	0	
10	0	0	0	0	0	511	509	513	32	0	
11	0	0	0	0	0	510	508	512	32	0	
12	0	0	0	0	0	510	507	513	32	0	
13	0	0	0	0	0	512	508	513	32	0	
14	0	0	0	0	0	515	509	511	32	0	
15	0	0	0	0	2	517	509	512	32	0	
0	0	0	0	0	0	515	510	512	32	0	
1	0	0	0	0	0	516	513	512	32	0	
2	0	0	0	0	0	515	511	510	31	0	
3	0	0	0	0	0	516	513	514	31	0	
4	0	0	0	0	0	515	512	512	31	0	
5	0	0	0	0	0	515	511	508	31	0	
6	0	0	0	0	0	516	512	508	32	0	
7	0	0	0	0	2	517	510	504	31	0	
8	0	0	0	0	0	513	507	504	31	0	
9	0	0	0	0	0	513	508	507	31	0	
10	0	0	0	0	0	510	509	508	31	0	
11	0	0	0	0	0	511	507	511	31	0	
12	0	0	0	0	0	511	506	512	32	0	
13	0	0	0	0	0	513	507	513	31	0	
14	0	0	0	0	0	513	508	512	31	0	
15	0	0	0	0	2	515	511	512	32	0	
0	0	0	0	0	0	516	510	509	32	0	
1	0	0	0	0	0	513	508	512	32	0	
2	0	0	0	0	0	514	507	512	31	0	
3	0	0	0	0	0	514	507	509	31	0	
4	0	0	0	0	0	512	508	513	31	0	
5	0	0	0	0	0	512	508	514	32	0	
6	0	0	0	0	0	515	511	513	32	0	
7	0	0	0	0	2	510	509	510	32	0	
8	0	0	0	0	0	511	510	512	31	0	
9	0	0	0	0	0	514	513	512	32	0	
10	0	0	0	0	0	514	510	512	32	0	
11	0	0	0	0	0	512	510	515	32	0	
12	0	0	0	0	0	514	511	518	32	0	
13	0	0	0	0	0	513	510	517	32	0	
14	0	0	0	0	0	515	510	516	32	0	
15	0	0	0	0	2	517	510	511	32	0	
0	0	0	0	0	0	515	509	505	32	0	
1	0	0	0	0	0	519	510	502	31	0	
2	0	0	0	0	0	517	508	505	31	0	
3	0	0	0	0	0	517	507	505	31	0	
4	0	0	0	0	0	515	509	510	31	0	
5	0	0	0	0	0	513	509	509	31	0	
6	0	0	0	0	0	511	511	512	31	0	
7	0	0	0	0	2	509	511	512	31	0	
8	0	0	0	0	0	511	512	516	32	0	
9	0	0	0	0	0	514	510	515	32	0	
10	0	0	0	0	0	516	507	514	31	0	
11	0	0	0	0	0	516	507	507	31	0	
12	0	0	0	0	0	518	511	504	31	0	
13	0	0	0	0	0	518	509	504	31	0	
14	0	0	0	0	0	516	508	507	31	0	
15	0	0	0	0	2	514	507	508	31	0	
0	0	0	0	0	0	511	508	510	31	0	
1	0	0	0	0	0	511	512	513	31	0	
2	0	0	0	0	0	509	510	512	32	0	
3	0	0	0	0	0	512	508	516	32	0	
4	0	0	0	0	0	513	510	515	32	0	
5	0	0	0	0	0	515	509	515	32	0	
6	0	0	0	0	0	515	511	510	31	0	
7	0	0	0	0	1	513	509	510	32	0	
8	0	0	0	0	0	514	510	511	31	0	
9	0	0	0	0	0	511	511	511	31	0	
10	0	0	0	0	0	512	509	513	31	0	
11	0	0	0	0	0	512	510	515	31	0	
12	0	0	0	0	0	516	510	516	31	0	
13	0	0	0	0	0	513	511	516	32	0	
14	0	0	0	0	0	515	512	512	32	0	
15	0	0	0	0	1	515	509	510	32	0	
0	0	0	0	0	0	512	511	513	32	0	
1	0	0	0	0	0	514	509	511	32	0	
2	0	0	0	0	0	516	508	509	31	0	
3	0	0	0	0	0	515	508	510	31	0	
4	0	0	0	0	0	516	510	512	31	0	
5	0	0	0	0	0	515	510	509	31	0	
6	0	0	0	0	0	515	511	508	31	0	
7	0	0	0	0	2	514	511	507	32	0	
8	0	0	0	0	0	513	512	509	32	0	
9	0	0	0	0	0	515	508	508	32	0	
10	0	0	0	0	0	516	511	508	32	0	
11	0	0	0	0	0	514	512	507	32	0	
12	0	0	0	0	0	514	511	510	32	0	
13	0	0	0	0	0	513	509	510	32	0	
14	0	0	0	0	0	515	511	511	31	0	
15	0	0	0	0	2	513	510	512	31	0	
0	0	0	0	0	0	512	508	513	32	0	
1	0	0	0	0	0	512	508	515	32	0	
2	0	0	0	0	0	513	507	515	32	0	
3	0	0	0	0	0	512	507	515	32	0	
4	0	0	0	0	0	511	510	519	32	0	
5	0	0	0	0	0	516	507	517	32	0	
6	0	0	0	0	0	515	510	516	32	0	
7	0	0	0	0	2	511	510	513	32	0	
8	0	0	0	0	0	513	510	512	32	0	
9	0	0	0	0	0	513	509	510	32	0	
10	0	0	0	0	0	513	510	508	32	0	
11	0	0	0	0	0	512	510	505	31	0	
12	0	0	0	0	0	515	508	507	32	0	
13	0	0	0	0	0	515	508	508	32	0	
14	0	0	0	0	0	513	507	508	32	0	
15	0	0	0	0	2	511	509	509	31	0	
0	0	0	0	0	0	514	510	510	31	0	
1	0	0	0	0	0	513	510	508	31	0	
2	0	0	0	0	0	515	508	507	31	0	
3	0	0	0	0	0	515	510	507	31	0	
4	0	0	0	0	0	515	510	506	31	0	
5	0	0	0	0	0	513	509	505	31	0	
6	0	0	0	0	0	511	509	511	31	0	
7	0	0	0	0	2	512	511	516	31	0	
8	0	0	0	0	0	514	512	516	32	0	
9	0	0	0	0	0	515	510	512	31	0	
10	0	0	0	0	0	515	511	512	31	0	
11	0	0	0	0	0	514	510	512	31	0	
12	0	0	0	0	0	513	507	512	31	0	
13	0	0	0	0	0	512	510	513	32	0	
14	0	0	0	0	0	512	508	512	32	0	
15	0	0	0	0	2	514	508	512	32	0	
0	0	0	0	0	0	515	509	512	32	0	
1	0	0	0	0	0	514	509	515	32	0	
2	0	0	0	0	0	513	509	513	32	0	
3	0	0	0	0	0	511	510	514	32	0	
4	0	0	0	0	0	515	510	511	32	0	
5	0	0	0	0	0	514	509	510	31	0	
6	0	0	0	0	0	515	512	510	32	0	
7	0	0	0	0	2	516	512	510	32	0	
8	0	0	0	0	0	515	511	512	32	0	
9	0	0	0	0	0	511	511	515	32	0	
10	0	0	0	0	0	514	513	518	32	0	
11	0	0	0	0	0	515	510	516	32	0	
12	0	0	0	0	0	515	509	519	32	0	
13	0	0	0	0	0	516	511	515	31	0	
14	0	0	0	0	0	514	509	513	31	0	
15	0	0	0	0	2	515	508	510	32	0	
0	0	0	0	0	0	512	506	513	32	0	
1	0	0	0	0	0	512	506	510	32	0	
2	0	0	0	0	0	512	508	517	32	0	
3	0	0	0	0	0	512	507	515	32	0	
4	0	0	0	0	0	515	507	511	32	0	
5	0	0	0	0	0	516	508	509	31	0	
6	0	0	0	0	0	514	509	501	32	0	
7	0	0	0	0	2	514	508	497	31	0	
8	0	0	0	0	0	513	508	505	31	0	
9	0	0	0	0	0	511	512	501	32	0	
10	0	0	0	0	0	514	509	503	31	0	
11	0	0	0	0	0	514	509	508	31	0	
12	0	0	0	0	0	510	512	516	32	0	
13	0	0	0	0	0	512	511	521	32	0	
14	0	0	0	0	0	515	509	518	31	0	
15	0	0	0	0	2	516	509	509	31	0	
0	0	0	0	0	0	516	510	507	32	0	
1	0	0	0	0	0	518	511	509	32	0	
2	0	0	0	0	0	517	511	508	31	0	
3	0	0	0	0	0	515	509	507	31	0	
4	0	0	0	0	0	516	510	508	31	0	
5	0	0	0	0	0	515	508	509	31	0	
6	0	0	0	0	0	513	509	509	31	0	
7	0	0	0	0	2	512	513	510	32	0	
8	0	0	0	0	0	513	511	511	32	0	
9	0	0	0	0	0	513	510	510	32	0	
10	0	0	0	0	0	512	511	514	32	0	
11	0	0	0	0	0	512	512	515	32	0	
12	0	0	0	0	0	513	514	515	31	0	
13	0	0	0	0	0	511	510	513	31	0	
14	0	0	0	0	0	515	510	510	31	0	
15	0	0	0	0	1	515	510	512	31	0	
0	0	0	0	0	0	513	510	513	32	0	
1	0	0	0	0	0	512	512	513	31	0	
2	0	0	0	0	0	514	510	514	31	0	
3	0	0	0	0	0	515	510	512	31	0	
4	0	0	0	0	0	516	508	511	31	0	
5	0	0	0	0	0	516	509	513	31	0	
6	0	0	0	0	0	514	507	512	32	0	
7	0	0	0	0	1	515	505	512	32	0	
8	0	0	0	0	0	514	508	512	32	0	
9	0	0	0	0	0	513	507	512	32	0	
10	0	0	0	0	0	513	508	512	32	0	
11	0	0	0	0	0	514	505	512	32	0	
12	0	0	0	0	0	512	507	510	32	0	
13	0	0	0	0	0	515	509	512	32	0	
14	0	0	0	0	0	514	508	509	31	0	
15	0	0	0	0	1	512	508	511	32	0	
0	0	0	0	0	0	514	511	513	32	0	
1	0	0	0	0	0	512	512	514	32	0	
2	0	0	0	0	0	517	511	513	32	0	
3	0	0	0	0	0	516	511	509	32	0	
4	0	0	0	0	0	517	510	510	32	0	
5	0	0	0	0	0	513	513	505	31	0	
6	0	0	0	0	0	512	509	508	31	0	
7	0	0	0	0	2	515	508	508	31	0	
8	0	0	0	0	0	515	506	513	32	0	
9	0	0	0	0	0	515	507	514	32	0	
10	0	0	0	0	0	512	510	512	32	0	
11	0	0	0	0	0	515	511	510	32	0	
12	0	0	0	0	0	511	510	508	32	0	
13	0	0	0	0	0	515	512	509	31	0	
14	0	0	0	0	0	513	513	505	31	0	
15	0	0	0	0	2	514	511	508	31	0	
0	0	0	0	0	0	514	508	508	31	0	
1	0	0	0	0	0	514	508	511	31	0	
2	0	0	0	0	0	513	510	511	32	0	
3	0	0	0	0	0	515	508	513	32	0	
4	0	0	0	0	0	515	508	517	32	0	
5	0	0	0	0	0	513	507	516	31	0	
6	0	0	0	0	0	513	510	515	32	0	
7	0	0	0	0	3	514	510	514	31	0	
8	0	0	0	0	0	513	510	511	32	0	
9	0	0	0	0	0	508	510	510	32	0	
10	0	0	0	0	0	508	509	512	32	0	
11	0	0	0	0	0	511	509	512	31	0	
12	0	0	0	0	0	511	510	512	31	0	
13	0	0	0	0	0	512	511	512	32	0	
14	0	0	0	0	0	511	509	514	32	0	
15	0	0	0	0	2	510	510	510	32	0	
0	0	0	0	0	0	515	511	511	32	0	
1	0	0	0	0	0	516	511	511	31	0	
2	0	0	0	0	0	518	510	507	32	0	
3	0	0	0	0	0	515	508	506	32	0	
4	0	0	0	0	0	517	508	508	31	0	
5	0	0	0	0	0	518	509	510	31	0	
6	0	0	0	0	0	517	510	513	32	0	
7	0	0	0	0	2	515	508	514	32	0	
8	0	0	0	0	0	517	509	511	32	0	
9	0	0	0	0	0	514	511	513	32	0	
10	0	0	0	0	0	514	510	513	32	0	
11	0	0	0	0	0	512	509	510	32	0	
12	0	0	0	0	0	513	510	508	31	0	
13	0	0	0	0	0	515	510	510	31	0	
14	0	0	0	0	0	513	509	513	31	0	
15	0	0	0	0	2	514	509	511	31	0	
0	0	0	0	0	0	511	505	511	32	0	
1	0	0	0	0	0	515	507	510	32	0	
2	0	0	0	0	0	515	509	510	32	0	
3	0	0	0	0	0	513	508	509	32	0	
4	0	0	0	0	0	513	510	511	32	0	
5	0	0	0	0	0	515	512	510	31	0	
6	0	0	0	0	0	517	510	509	31	0	
7	0	0	0	0	2	515	510	508	31	0	
8	0	0	0	0	0	514	510	511	31	0	
9	0	0	0	0	0	512	511	513	31	0	
10	0	0	0	0	0	514	510	512	31	0	
11	0	0	0	0	0	516	510	511	31	0	
12	0	0	0	0	0	514	511	512	32	0	
13	0	0	0	0	0	512	511	512	32	0	
14	0	0	0	0	0	516	511	512	32	0	
15	0	0	0	0	2	514	510	511	32	0	
0	0	0	0	0	0	515	510	512	32	0	
1	0	0	0	0	0	510	508	512	31	0	
2	0	0	0	0	0	513	508	510	31	0	
3	0	0	0	0	0	514	507	511	32	0	
4	0	0	0	0	0	516	508	510	32	0	
5	0	0	0	0	0	514	507	508	31	0	
6	0	0	0	0	0	513	508	512	31	0	
7	0	0	0	0	2	512	506	512	32	0	
8	0	0	0	0	0	512	508	513	32	0	
9	0	0	0	0	0	512	509	515	32	0	
10	0	0	0	0	0	516	509	512	31	0	
11	0	0	0	0	0	516	511	511	31	0	
12	0	0	0	0	0	515	510	510	32	0	
13	0	0	0	0	0	516	512	511	32	0	
14	0	0	0	0	0	515	512	512	32	0	
15	0	0	0	0	2	515	511	510	32	0	
0	0	0	0	0	0	513	512	510	32	0	
1	0	0	0	0	0	512	513	512	31	0	
2	0	0	0	0	0	511	512	511	32	0	
3	0	0	0	0	0	512	511	512	32	0	
4	0	0	0	0	0	515	513	511	32	0	
5	0	0	0	0	0	515	510	507	31	0	
6	0	0	0	0	0	515	508	505	31	0	
7	0	0	0	0	2	515	505	507	31	0	
8	0	0	0	0	0	512	504	511	31	0	
9	0	0	0	0	0	512	505	511	32	0	
10	0	0	0	0	0	512	507	513	32	0	
11	0	0	0	0	0	513	509	513	32	0	
12	0	0	0	0	0	513	510	512	32	0	
13	0	0	0	0	0	514	511	512	32	0	
14	0	0	0	0	0	513	511	512	31	0	
15	0	0	0	0	0	513	512	511	31	0	
0	0	0	0	0	0	512	514	512	31	0	
1	0	0	0	0	0	515	514	510	32	0	
2	0	0	0	0	0	511	511	510	31	0	
3	0	0	0	0	0	514	511	510	32	0	
4	0	0	0	0	0	515	513	513	32	0	
5	0	0	0	0	0	513	510	514	31	0	
6	0	0	0	0	0	513	509	515	32	0	
7	0	0	0	0	1	516	508	512	31	0	
8	0	0	0	0	0	516	507	510	32	0	
9	0	0	0	0	0	519	505	509	31	0	
10	0	0	0	0	0	516	503	510	31	0	
11	0	0	0	0	0	518	503	509	31	0	
12	0	0	0	0	0	513	505	511	32	0	
13	0	0	0	0	0	512	507	512	32	0	
14	0	0	0	0	0	513	509	509	31	0	
15	0	0	0	0	1	514	509	510	31	0	
0	0	0	0	0	0	511	510	511	32	0	
1	0	0	0	0	0	513	511	512	31	0	
2	0	0	0	0	0	514	509	512	32	0	
3	0	0	0	0	0	514	511	512	31	0	
4	0	0	0	0	0	510	512	511	32	0	
5	0	0	0	0	0	507	508	512	31	0	
6	0	0	0	0	0	508	507	510	31	0	
7	0	0	0	0	2	514	508	511	31	0	
8	0	0	0	0	0	515	508	508	31	0	
9	0	0	0	0	0	515	508	511	31	0	
10	0	0	0	0	0	519	508	512	32	0	
11	0	0	0	0	0	521	508	511	32	0	
12	0	0	0	0	0	514	510	512	32	0	
13	0	0	0	0	0	511	511	511	31	0	
14	0	0	0	0	0	515	509	511	32	0	
15	0	0	0	0	2	516	510	512	32	0	
0	0	0	0	0	0	515	510	513	32	0	
1	0	0	0	0	0	515	512	511	32	0	
2	0	0	0	0	0	517	511	512	32	0	
3	0	0	0	0	0	515	512	510	32	0	
4	0	0	0	0	0	511	508	511	32	0	
5	0	0	0	0	0	511	511	512	32	0	
6	0	0	0	0	0	513	512	511	32	0	
7	0	0	0	0	2	513	509	512	32	0	
8	0	0	0	0	0	512	506	512	31	0	
9	0	0	0	0	0	511	506	512	32	0	
10	0	0	0	0	0	512	509	511	31	0	
11	0	0	0	0	0	512	511	512	31	0	
12	0	0	0	0	0	514	510	513	32	0	
13	0	0	0	0	0	512	507	509	31	0	
14	0	0	0	0	0	512	508	507	31	0	
15	0	0	0	0	2	513	512	506	31	0	
0	0	0	0	0	0	517	511	508	31	0	
1	0	0	0	0	0	517	510	509	31	0	
2	0	0	0	0	0	512	511	510	32	0	
3	0	0	0	0	0	512	511	512	31	0	
4	0	0	0	0	0	514	510	513	32	0	
5	0	0	0	0	0	516	510	514	32	0	
6	0	0	0	0	0	514	510	514	32	0	
7	0	0	0	0	2	514	511	514	31	0	
8	0	0	0	0	0	518	508	510	31	0	
9	0	0	0	0	0	513	508	508	31	0	
10	0	0	0	0	0	516	507	507	31	0	
11	0	0	0	0	0	515	510	512	31	0	
12	0	0	0	0	0	515	508	511	31	0	
13	0	0	0	0	0	515	510	512	31	0	
14	0	0	0	0	0	513	510	513	31	0	
15	0	0	0	0	2	512	513	513	32	0	
0	0	0	0	0	0	511	514	519	32	0	
1	0	0	0	0	0	514	511	516	31	0	
2	0	0	0	0	0	511	511	517	31	0	
3	0	0	0	0	0	511	509	516	31	0	
4	0	0	0	0	0	513	508	511	31	0	
5	0	0	0	0	0	515	508	504	32	0	
6	0	0	0	0	0	513	508	502	31	0	
7	0	0	0	0	2	514	507	495	31	0	
8	0	0	0	0	0	516	507	498	32	0	
9	0	0	0	0	0	515	504	513	32	0	
10	0	0	0	0	0	513	507	523	32	0	
11	0	0	0	0	0	516	509	524	32	0	
12	0	0	0	0	0	514	507	523	32	0	
13	0	0	0	0	0	514	510	514	32	0	
14	0	0	0	0	0	515	509	505	31	0	
15	0	0	0	0	2	517	511	502	31	0	
0	0	0	0	0	0	515	512	495	31	0	
1	0	0	0	0	0	512	513	496	31	0	
2	0	0	0	0	0	513	512	502	31	0	
3	0	0	0	0	0	514	511	508	32	0	
4	0	0	0	0	0	512	510	510	32	0	
5	0	0	0	0	0	510	506	515	32	0	
6	0	0	0	0	0	512	508	513	32	0	
7	0	0	0	0	2	511	507	515	32	0	
8	0	0	0	0	0	514	508	519	32	0	
9	0	0	0	0	0	514	508	518	32	0	
10	0	0	0	0	0	515	509	523	32	0	
11	0	0	0	0	0	513	508	525	32	0	
12	0	0	0	0	0	514	508	519	32	0	
13	0	0	0	0	0	514	510	515	31	0	
14	0	0	0	0	0	516	508	509	31	0	
15	0	0	0	0	2	515	510	501	31	0	
0	0	0	0	0	0	514	509	498	31	0	
1	0	0	0	0	0	515	510	504	31	0	
2	0	0	0	0	0	515	510	508	32	0	
3	0	0	0	0	0	513	512	512	32	0	
4	0	0	0	0	0	511	510	511	32	0	
5	0	0	0	0	0	512	510	510	31	0	
6	0	0	0	0	0	513	509	510	32	0	
7	0	0	0	0	1	513	510	512	32	0	
8	0	0	0	0	0	516	511	514	32	0	
9	0	0	0	0	0	515	508	517	32	0	
10	0	0	0	0	0	517	508	516	32	0	
11	0	0	0	0	0	516	509	513	31	0	
12	0	0	0	0	0	515	509	515	32	0	
13	0	0	0	0	0	513	509	529	32	0	
14	0	0	0	0	0	515	510	533	32	0	
15	0	0	0	0	1	515	511	524	32	0	
0	0	0	0	0	0	512	509	510	32	0	
1	0	0	0	0	0	515	509	498	32	0	
2	0	0	0	0	0	516	511	492	31	0	
3	0	0	0	0	0	514	509	489	31	0	
4	0	0	0	0	0	511	509	493	31	0	
5	0	0	0	0	0	513	509	498	31	0	
6	0	0	0	0	0	513	510	508	31	0	
7	0	0	0	0	1	512	510	515	31	0	
8	0	0	0	0	0	513	508	515	31	0	
9	0	0	0	0	0	516	508	515	31	0	
10	0	0	0	0	0	516	508	511	31	0	
11	0	0	0	0	0	515	507	510	31	0	
12	0	0	0	0	0	517	512	512	31	0	
13	0	0	0	0	0	514	507	514	32	0	
14	0	0	0	0	0	510	505	516	32	0	
15	0	0	0	0	2	511	507	514	32	0	
0	0	0	0	0	0	513	509	508	32	0	
1	0	0	0	0	0	512	509	508	31	0	
2	0	0	0	0	0	516	510	508	32	0	
3	0	0	0	0	0	516	512	512	32	0	
4	0	0	0	0	0	512	512	516	32	0	
5	0	0	0	0	0	514	513	513	32	0	
6	0	0	0	0	0	514	512	519	32	0	
7	0	0	0	0	2	515	512	519	32	0	
8	0	0	0	0	0	513	513	520	32	0	
9	0	0	0	0	0	514	510	515	32	0	
10	0	0	0	0	0	513	509	511	32	0	
11	0	0	0	0	0	515	511	507	32	0	
12	0	0	0	0	0	514	508	505	31	0	
13	0	0	0	0	0	516	508	505	31	0	
14	0	0	0	0	0	518	507	505	31	0	
15	0	0	0	0	2	514	507	507	31	0	
0	0	0	0	0	0	512	509	509	31	0	
1	0	0	0	0	0	514	509	512	32	0	
2	0	0	0	0	0	512	508	528	32	0	
3	0	0	0	0	0	511	509	532	32	0	
4	0	0	0	0	0	511	511	532	32	0	
5	0	0	0	0	0	512	511	518	32	0	
6	0	0	0	0	0	513	511	499	32	0	
7	0	0	0	0	2	516	509	490	31	0	
8	0	0	0	0	0	517	511	488	31	0	
9	0	0	0	0	0	516	512	494	31	0	
10	0	0	0	0	0	515	513	506	31	0	
11	0	0	0	0	0	514	510	513	31	0	
12	0	0	0	0	0	514	506	514	31	0	
13	0	0	0	0	0	515	505	510	32	0	
14	0	0	0	0	0	516	506	512	31	0	
15	0	0	0	0	2	513	507	509	31	0	
0	0	0	0	0	0	514	506	507	31	0	
1	0	0	0	0	0	513	510	508	31	0	
2	0	0	0	0	0	513	511	507	31	0	
3	0	0	0	0	0	514	511	511	31	0	
4	0	0	0	0	0	522	511	510	31	0	
5	0	0	0	0	0	513	511	507	31	0	
6	0	0	0	0	0	515	513	502	32	0	
7	0	0	0	0	2	511	512	513	32	0	
8	0	0	0	0	0	514	510	515	32	0	
9	0	0	0	0	0	507	507	522	32	0	
10	0	0	0	0	0	508	508	539	32	0	
11	0	0	0	0	0	513	511	536	32	0	
12	0	0	0	0	0	517	511	523	32	0	
13	0	0	0	0	0	517	510	504	31	0	
14	0	0	0	0	0	514	505	490	31	0	
15	0	0	0	0	2	516	505	483	32	0	
0	0	0	0	0	0	515	508	486	32	0	
1	0	0	0	0	0	515	508	495	31	0	
2	0	0	0	0	0	519	507	507	31	0	
3	0	0	0	0	0	515	509	516	31	0	
4	0	0	0	0	0	506	509	521	31	0	
5	0	0	0	0	0	515	511	524	31	0	
6	0	0	0	0	0	518	512	518	32	0	
7	0	0	0	0	2	513	512	513	32	0	
8	0	0	0	0	0	504	511	514	32	0	
9	0	0	0	0	0	508	511	512	31	0	
10	0	0	0	0	0	512	510	511	31	0	
11	0	0	0	0	0	513	510	513	31	0	
12	0	0	0	0	0	513	508	515	31	0	
13	0	0	0	0	0	511	510	518	31	0	
14	0	0	0	0	0	512	507	516	32	0	
15	0	0	0	0	2	512	506	516	32	0	
0	0	0	0	0	0	514	505	516	32	0	
1	0	0	0	0	0	514	509	515	32	0	
2	0	0	0	0	0	516	509	519	32	0	
3	0	0	0	0	0	516	511	513	32	0	
4	0	0	0	0	0	516	511	508	32	0	
5	0	0	0	0	0	515	513	508	31	0	
6	0	0	0	0	0	513	511	506	31	0	
7	0	0	0	0	2	517	515	504	31	0	
8	0	0	0	0	0	516	511	510	31	0	
9	0	0	0	0	0	516	508	517	32	0	
10	0	0	0	0	0	515	510	519	32	0	
11	0	0	0	0	0	515	509	520	32	0	
12	0	0	0	0	0	515	509	518	32	0	
13	0	0	0	0	0	513	508	513	32	0	
14	0	0	0	0	0	511	511	514	32	0	
15	0	0	0	0	2	508	510	516	32	0	
0	0	0	0	0	0	517	508	512	31	0	
1	0	0	0	0	0	525	509	491	31	0	
2	0	0	0	0	0	522	510	491	31	0	
3	0	0	0	0	0	508	510	500	32	0	
4	0	0	0	0	0	511	508	509	32	0	
5	0	0	0	0	0	511	505	506	32	0	
6	0	0	0	0	0	519	507	502	32	0	
7	0	0	0	0	1	515	513	519	32	0	
8	0	0	0	0	0	503	514	538	32	0	
9	0	0	0	0	0	503	513	533	31	0	
10	0	0	0	0	0	514	511	521	30	0	
11	0	0	0	0	0	518	509	509	31	0	
12	0	0	0	0	0	518	504	491	31	0	
13	0	0	0	0	0	518	508	478	30	0	
14	0	0	0	0	0	515	507	475	30	0	
15	0	0	0	0	1	516	509	479	30	0	
0	0	0	0	0	0	515	511	490	31	0	
1	0	0	0	0	0	513	508	499	32	0	
2	0	0	0	0	0	516	505	517	32	0	
3	0	0	0	0	0	517	507	536	32	0	
4	0	0	0	0	0	515	512	541	32	0	
5	0	0	0	0	0	504	511	542	32	0	
6	0	0	0	0	0	505	507	539	32	0	
7	0	0	0	0	1	517	504	529	32	0	
8	0	0	0	0	0	531	509	515	32	0	
9	0	0	0	0	0	525	513	505	31	0	
10	0	0	0	0	0	510	516	508	32	0	
11	0	0	0	0	0	494	516	508	32	0	
12	0	0	0	0	0	505	516	496	32	0	
13	0	0	0	0	0	517	513	491	31	0	
14	0	0	0	0	0	519	510	512	32	0	
15	0	0	0	0	2	516	509	517	32	0	
0	0	0	0	0	0	516	506	508	31	0	
1	0	0	0	0	0	514	506	501	31	0	
2	0	0	0	0	0	512	506	499	31	0	
3	0	0	0	0	0	508	502	500	32	0	
4	0	0	0	0	0	509	504	507	32	0	
5	0	0	0	0	0	509	507	519	32	0	
6	0	0	0	0	0	510	505	541	32	0	
7	0	0	0	0	3	511	508	547	32	0	
8	0	0	0	0	0	514	509	532	32	0	
9	0	0	0	0	0	518	510	513	32	0	
10	0	0	0	0	0	519	512	506	31	0	
11	0	0	0	0	0	521	511	489	31	0	
12	0	0	0	0	0	513	511	488	31	0	
13	0	0	0	0	0	512	513	487	31	0	
14	0	0	0	0	0	508	514	508	32	0	
15	0	0	0	0	2	513	511	507	31	0	
0	0	0	0	0	0	517	510	507	31	0	
1	0	0	0	0	0	516	511	505	30	0	
2	0	0	0	0	0	519	513	498	31	0	
3	0	0	0	0	0	521	511	509	31	0	
4	0	0	0	0	0	520	509	523	31	0	
5	0	0	0	0	0	515	511	527	32	0	
6	0	0	0	0	0	514	508	532	33	0	
7	0	0	0	0	2	507	504	537	33	0	
8	0	0	0	0	0	504	501	524	33	0	
9	0	0	0	0	0	508	501	519	33	0	
10	0	0	0	0	0	516	505	514	32	0	
11	0	0	0	0	0	519	507	528	31	0	
12	0	0	0	0	0	518	506	519	31	0	
13	0	0	0	0	0	519	514	497	30	0	
14	0	0	0	0	0	517	514	482	31	0	
15	0	0	0	0	2	514	516	487	31	0	
0	0	0	0	0	0	511	513	494	31	0	
1	0	0	0	0	0	513	512	489	31	0	
2	0	0	0	0	0	518	508	487	31	0	
3	0	0	0	0	0	512	508	504	31	0	
4	0	0	0	0	0	512	505	513	31	0	
5	0	0	0	0	0	515	504	514	32	0	
6	0	0	0	0	0	515	507	519	32	0	
7	0	0	0	0	2	511	508	520	32	0	
8	0	0	0	0	0	501	507	525	32	0	
9	0	0	0	0	0	500	512	523	32	0	
10	0	0	0	0	0	506	512	519	32	0	
11	0	0	0	0	0	517	515	517	32	0	
12	0	0	0	0	0	524	515	513	31	0	
13	0	0	0	0	0	521	510	512	31	0	
14	0	0	0	0	0	517	510	514	31	0	
15	0	0	0	0	2	516	511	515	32	0	
0	0	0	0	0	0	519	512	514	32	0	
1	0	0	0	0	0	517	510	514	31	0	
2	0	0	0	0	0	516	508	512	31	0	
3	0	0	0	0	0	515	504	514	32	0	
4	0	0	0	0	0	515	508	512	32	0	
5	0	0	0	0	0	516	506	512	31	0	
6	0	0	0	0	0	514	508	509	32	0	
7	0	0	0	0	2	512	508	512	31	0	
8	0	0	0	0	0	511	511	511	31	0	
9	0	0	0	0	0	510	510	510	32	0	
10	0	0	0	0	0	512	512	511	32	0	
11	0	0	0	0	0	512	514	510	32	0	
12	0	0	0	0	0	513	512	513	32	0	
13	0	0	0	0	0	517	511	511	31	0	
14	0	0	0	0	0	514	511	509	31	0	
15	0	0	0	0	2	518	509	505	31	0	
0	0	0	0	0	0	514	512	506	31	0	
1	0	0	0	0	0	513	507	508	31	0	
2	0	0	0	0	0	511	506	511	32	0	
3	0	0	0	0	0	509	505	513	31	0	
4	0	0	0	0	0	511	502	512	32	0	
5	0	0	0	0	0	514	509	510	32	0	
6	0	0	0	0	0	513	505	510	32	0	
7	0	0	0	0	2	515	508	510	31	0	
8	0	0	0	0	0	513	511	514	31	0	
9	0	0	0	0	0	515	512	511	31	0	
10	0	0	0	0	0	516	512	513	31	0	
11	0	0	0	0	0	514	508	513	32	0	
12	0	0	0	0	0	511	512	510	32	0	
13	0	0	0	0	0	511	510	513	32	0	
14	0	0	0	0	0	510	510	514	32	0	
15	0	0	0	0	2	516	510	511	32	0	
0	0	0	0	0	0	515	509	510	32	0	
1	0	0	0	0	0	515	509	509	31	0	
2	0	0	0	0	0	516	508	510	31	0	
3	0	0	0	0	0	518	507	510	32	0	
4	0	0	0	0	0	518	505	519	32	0	
5	0	0	0	0	0	514	510	522	32	0	
6	0	0	0	0	0	516	511	516	32	0	
7	0	0	0	0	1	519	513	513	32	0	
8	0	0	0	0	0	515	511	501	32	0	
9	0	0	0	0	0	508	512	490	31	0	
10	0	0	0	0	0	510	513	500	31	0	
11	0	0	0	0	0	513	512	505	31	0	
12	0	0	0	0	0	509	511	508	31	0	
13	0	0	0	0	0	508	508	512	31	0	
14	0	0	0	0	0	511	509	511	31	0	
15	0	0	0	0	1	512	508	513	32	0	
0	0	0	0	0	0	515	507	513	32	0	
1	0	0	0	0	0	516	504	509	32	0	
2	0	0	0	0	0	516	508	510	32	0	
3	0	0	0	0	0	516	510	513	32	0	
4	0	0	0	0	0	514	511	519	32	0	
5	0	0	0	0	0	512	512	520	32	0	
6	0	0	0	0	0	513	509	529	32	0	
7	0	0	0	0	1	514	507	524	32	0	
8	0	0	0	0	0	516	508	514	31	0	
9	0	0	0	0	0	513	509	507	32	0	
10	0	0	0	0	0	511	506	503	31	0	
11	0	0	0	0	0	513	508	499	31	0	
12	0	0	0	0	0	511	508	499	31	0	
13	0	0	0	0	0	515	511	498	31	0	
14	0	0	0	0	0	516	509	502	31	0	
15	0	0	0	0	2	515	510	506	31	0	
0	0	0	0	0	0	515	512	513	32	0	
1	0	0	0	0	0	516	510	513	32	0	
2	0	0	0	0	0	513	511	515	32	0	
3	0	0	0	0	0	513	511	518	31	0	
4	0	0	0	0	0	512	509	518	32	0	
5	0	0	0	0	0	512	507	517	32	0	
6	0	0	0	0	0	509	506	519	32	0	
7	0	0	0	0	2	510	507	519	32	0	
8	0	0	0	0	0	512	506	515	32	0	
9	0	0	0	0	0	514	508	510	32	0	
10	0	0	0	0	0	517	514	507	31	0	
11	0	0	0	0	0	519	514	506	31	0	
12	0	0	0	0	0	516	513	506	31	0	
13	0	0	0	0	0	513	512	505	31	0	
14	0	0	0	0	0	514	510	511	31	0	
15	0	0	0	0	2	515	512	513	32	0	
0	0	0	0	0	0	514	512	516	32	0	
1	0	0	0	0	0	513	512	511	32	0	
2	0	0	0	0	0	512	511	511	32	0	
3	0	0	0	0	0	513	507	509	32	0	
4	0	0	0	0	0	513	508	510	31	0	
5	0	0	0	0	0	514	505	510	31	0	
6	0	0	0	0	0	515	508	511	31	0	
7	0	0	0	0	2	515	504	510	31	0	
8	0	0	0	0	0	515	509	512	31	0	
9	0	0	0	0	0	512	507	511	31	0	
10	0	0	0	0	0	515	510	512	31	0	
11	0	0	0	0	0	514	510	512	32	0	
12	0	0	0	0	0	513	510	512	32	0	
13	0	0	0	0	0	515	512	513	32	0	
14	0	0	0	0	0	512	511	512	32	0	
15	0	0	0	0	2	512	510	517	31	0	
0	0	0	0	0	0	512	510	519	31	0	
1	0	0	0	0	0	513	511	516	31	0	
2	0	0	0	0	0	512	508	512	32	0	
3	0	0	0	0	0	510	507	508	32	0	
4	0	0	0	0	0	512	508	504	32	0	
5	0	0	0	0	0	513	509	503	31	0	
6	0	0	0	0	0	512	507	504	31	0	
7	0	0	0	0	2	512	507	504	31	0	
8	0	0	0	0	0	515	507	507	32	0	
9	0	0	0	0	0	519	511	509	32	0	
10	0	0	0	0	0	520	512	510	31	0	
11	0	0	0	0	0	522	508	515	32	0	
12	0	0	0	0	0	517	508	519	32	0	
13	0	0	0	0	0	514	508	524	32	0	
14	0	0	0	0	0	511	511	521	32	0	
15	0	0	0	0	2	510	512	518	32	0	
0	0	0	0	0	0	512	513	519	32	0	
1	0	0	0	0	0	513	510	515	32	0	
2	0	0	0	0	0	516	509	508	31	0	
3	0	0	0	0	0	515	512	506	31	0	
4	0	0	0	0	0	511	512	502	31	0	
5	0	0	0	0	0	513	510	499	31	0	
6	0	0	0	0	0	516	508	494	31	0	
7	0	0	0	0	2	519	507	492	31	0	
8	0	0	0	0	0	515	508	494	31	0	
9	0	0	0	0	0	513	508	504	31	0	
10	0	0	0	0	0	513	508	513	31	0	
11	0	0	0	0	0	513	507	518	31	0	
12	0	0	0	0	0	514	508	519	32	0	
13	0	0	0	0	0	513	510	518	32	0	
14	0	0	0	0	0	513	511	517	32	0	
15	0	0	0	0	2	511	510	517	32	0	
0	0	0	0	0	0	511	511	515	32	0	
1	0	0	0	0	0	511	511	516	32	0	
2	0	0	0	0	0	513	510	515	32	0	
3	0	0	0	0	0	513	510	515	32	0	
4	0	0	0	0	0	511	510	515	32	0	
5	0	0	0	0	0	515	508	515	32	0	
6	0	0	0	0	0	515	509	512	32	0	
7	0	0	0	0	2	515	510	512	32	0	
8	0	0	0	0	0	515	507	513	32	0	
9	0	0	0	0	0	514	509	514	32	0	
10	0	0	0	0	0	512	511	513	32	0	
11	0	0	0	0	0	514	510	512	31	0	
12	0	0	0	0	0	515	510	512	31	0	
13	0	0	0	0	0	513	509	509	32	0	
14	0	0	0	0	0	515	510	508	32	0	
15	0	0	0	0	1	512	508	507	32	0	
0	0	0	0	0	0	514	513	507	32	0	
1	0	0	0	0	0	512	511	508	32	0	
2	0	0	0	0	0	515	508	510	32	0	
3	0	0	0	0	0	513	508	510	32	0	
4	0	0	0	0	0	513	510	511	31	0	
5	0	0	0	0	0	513	508	510	31	0	
6	0	0	0	0	0	514	506	509	31	0	
7	0	0	0	0	1	515	508	511	32	0	
8	0	0	0	0	0	513	505	512	32	0	
9	0	0	0	0	0	513	508	515	32	0	
10	0	0	0	0	0	517	509	515	32	0	
11	0	0	0	0	0	518	511	512	31	0	
12	0	0	0	0	0	517	512	511	31	0	
13	0	0	0	0	0	513	510	503	31	0	
14	0	0	0	0	0	513	509	502	31	0	
15	0	0	0	0	1	513	512	504	31	0	
0	0	0	0	0	0	514	512	507	31	0	
1	0	0	0	0	0	512	511	511	31	0	
2	0	0	0	0	0	514	510	513	31	0	
3	0	0	0	0	0	510	511	511	31	0	
4	0	0	0	0	0	508	512	515	32	0	
5	0	0	0	0	0	508	510	516	32	0	
6	0	0	0	0	0	510	510	513	32	0	
7	0	0	0	0	2	515	508	512	32	0	
8	0	0	0	0	0	515	507	511	32	0	
9	0	0	0	0	0	518	509	512	32	0	
10	0	0	0	0	0	515	510	516	32	0	
11	0	0	0	0	0	518	507	516	32	0	
12	0	0	0	0	0	518	509	518	32	0	
13	0	0	0	0	0	518	510	515	32	0	
14	0	0	0	0	0	515	509	513	31	0	
15	0	0	0	0	2	512	508	510	32	0	
0	0	0	0	0	0	511	510	510	32	0	
1	0	0	0	0	0	512	511	508	32	0	
2	0	0	0	0	0	514	511	508	31	0	
3	0	0	0	0	0	516	512	509	32	0	
4	0	0	0	0	0	512	515	510	32	0	
5	0	0	0	0	0	516	514	511	31	0	
6	0	0	0	0	0	516	508	512	32	0	
7	0	0	0	0	2	515	508	509	31	0	
8	0	0	0	0	0	516	508	510	31	0	
9	0	0	0	0	0	513	509	512	31	0	
10	0	0	0	0	0	515	507	512	31	0	
11	0	0	0	0	0	515	505	510	31	0	
12	0	0	0	0	0	516	506	508	31	0	
13	0	0	0	0	0	516	508	512	32	0	
14	0	0	0	0	0	515	511	512	31	0	
15	0	0	0	0	2	514	510	514	31	0	
0	0	0	0	0	0	514	510	515	32	0	
1	0	0	0	0	0	511	510	516	32	0	
2	0	0	0	0	0	510	510	517	32	0	
3	0	0	0	0	0	514	508	512	32	0	
4	0	0	0	0	0	512	507	512	31	0	
5	0	0	0	0	0	511	507	508	32	0	
6	0	0	0	0	0	510	508	508	32	0	
7	0	0	0	0	2	514	510	506	32	0	
8	0	0	0	0	0	516	509	504	32	0	
9	0	0	0	0	0	514	510	507	31	0	
10	0	0	0	0	0	515	510	507	31	0	
11	0	0	0	0	0	516	512	507	31	0	
12	0	0	0	0	0	516	510	507	31	0	
13	0	0	0	0	0	513	510	506	31	0	
14	0	0	0	0	0	515	507	512	31	0	
15	0	0	0	0	2	514	511	513	32	0	
0	0	0	0	0	0	514	511	514	32	0	
1	0	0	0	0	0	512	510	514	32	0	
2	0	0	0	0	0	514	511	512	32	0	
3	0	0	0	0	0	514	509	511	32	0	
4	0	0	0	0	0	513	510	515	32	0	
5	0	0	0	0	0	513	511	513	32	0	
6	0	0	0	0	0	514	508	514	32	0	
7	0	0	0	0	2	514	508	513	31	0	
8	0	0	0	0	0	512	509	512	31	0	
9	0	0	0	0	0	512	507	509	31	0	
10	0	0	0	0	0	512	508	510	31	0	
11	0	0	0	0	0	513	508	507	31	0	
12	0	0	0	0	0	515	505	507	31	0	
13	0	0	0	0	0	516	509	510	31	0	
14	0	0	0	0	0	515	512	509	32	0	
15	0	0	0	0	2	513	508	510	32	0	
0	0	0	0	0	0	513	508	510	32	0	
1	0	0	0	0	0	513	510	513	32	0	
2	0	0	0	0	0	515	510	513	31	0	
3	0	0	0	0	0	514	512	512	32	0	
4	0	0	0	0	0	513	512	513	32	0	
5	0	0	0	0	0	516	510	512	32	0	
6	0	0	0	0	0	515	510	512	31	0	
7	0	0	0	0	2	515	509	511	32	0	
8	0	0	0	0	0	511	508	513	32	0	
9	0	0	0	0	0	512	510	516	32	0	
10	0	0	0	0	0	515	511	513	31	0	
11	0	0	0	0	0	515	510	513	31	0	
12	0	0	0	0	0	516	509	511	31	0	
13	0	0	0	0	0	514	510	508	31	0	
14	0	0	0	0	0	513	508	507	31	0	
15	0	0	0	0	2	515	508	506	31	0	
0	0	0	0	0	0	512	508	508	32	0	
1	0	0	0	0	0	511	509	509	32	0	
2	0	0	0	0	0	511	509	510	32	0	
3	0	0	0	0	0	513	509	511	32	0	
4	0	0	0	0	0	512	511	514	32	0	
5	0	0	0	0	0	515	513	513	32	0	
6	0	0	0	0	0	512	511	511	32	0	
7	0	0	0	0	2	512	512	512	32	0	
8	0	0	0	0	0	513	509	511	32	0	
9	0	0	0	0	0	511	511	511	32	0	
10	0	0	0	0	0	514	511	511	31	0	
11	0	0	0	0	0	516	510	510	32	0	
12	0	0	0	0	0	515	507	511	32	0	
13	0	0	0	0	0	517	508	510	31	0	
14	0	0	0	0	0	516	509	509	31	0	
15	0	0	0	0	1	513	509	508	32	0	
0	0	0	0	0	0	512	508	508	31	0	
1	0	0	0	0	0	511	507	509	31	0	
2	0	0	0	0	0	512	508	510	31	0	
3	0	0	0	0	0	512	509	511	32	0	
4	0	0	0	0	0	514	507	511	31	0	
5	0	0	0	0	0	516	508	511	32	0	
6	0	0	0	0	0	514	509	512	32	0	
7	0	0	0	0	1	514	510	510	31	0	
8	0	0	0	0	0	511	509	508	31	0	
9	0	0	0	0	0	512	510	512	31	0	
10	0	0	0	0	0	513	510	513	31	0	
11	0	0	0	0	0	513	510	513	32	0	
12	0	0	0	0	0	513	510	513	31	0	
13	0	0	0	0	0	513	510	512	32	0	
14	0	0	0	0	0	516	512	514	32	0	
15	0	0	0	0	1	516	512	514	32	0	
0	0	0	0	0	0	515	511	512	31	0	
1	0	0	0	0	0	517	509	513	31	0	
2	0	0	0	0	0	513	507	512	31	0	
3	0	0	0	0	0	512	511	511	31	0	
4	0	0	0	0	0	512	510	512	31	0	
5	0	0	0	0	0	514	510	511	32	0	
6	0	0	0	0	0	514	512	511	32	0	
7	0	0	0	0	3	513	511	509	32	0	
8	0	0	0	0	0	514	510	509	31	0	
9	0	0	0	0	0	515	510	510	32	0	
10	0	0	0	0	0	512	508	512	31	0	
11	0	0	0	0	0	515	508	511	31	0	
12	0	0	0	0	0	515	510	512	32	0	
13	0	0	0	0	0	514	507	511	31	0	
14	0	0	0	0	0	512	508	510	31	0	
15	0	0	0	0	2	512	507	510	31	0	
0	0	0	0	0	0	514	508	512	32	0	
1	0	0	0	0	0	515	510	511	32	0	
2	0	0	0	0	0	514	508	512	32	0	
3	0	0	0	0	0	516	510	512	31	0	
4	0	0	0	0	0	514	510	508	31	0	
5	0	0	0	0	0	513	512	511	31	0	
6	0	0	0	0	0	514	512	511	32	0	
7	0	0	0	0	2	514	512	514	32	0	
8	0	0	0	0	0	515	511	511	32	0	
9	0	0	0	0	0	513	509	510	31	0	
10	0	0	0	0	0	514	512	510	31	0	
11	0	0	0	0	0	514	509	511	31	0	
12	0	0	0	0	0	513	511	513	32	0	
13	0	0	0	0	0	513	508	512	32	0	
14	0	0	0	0	0	513	506	513	31	0	
15	0	0	0	0	2	513	508	510	31	0	
0	0	0	0	0	0	514	508	512	32	0	
1	0	0	0	0	0	513	508	512	32	0	
2	0	0	0	0	0	514	509	512	32	0	
3	0	0	0	0	0	514	509	512	32	0	
4	0	0	0	0	0	514	510	511	32	0	
5	0	0	0	0	0	515	511	513	32	0	
6	0	0	0	0	0	516	511	510	32	0	
7	0	0	0	0	2	515	510	512	31	0	
8	0	0	0	0	0	511	510	510	32	0	
9	0	0	0	0	0	512	510	510	32	0	
10	0	0	0	0	0	513	513	510	32	0	
11	0	0	0	0	0	515	509	508	31	0	
12	0	0	0	0	0	514	511	509	31	0	
13	0	0	0	0	0	512	510	509	31	0	
14	0	0	0	0	0	514	510	510	31	0	
15	0	0	0	0	2	515	507	510	31	0	
0	0	0	0	0	0	517	510	512	32	0	
1	0	0	0	0	0	513	507	513	32	0	
2	0	0	0	0	0	515	507	512	32	0	
3	0	0	0	0	0	516	510	512	32	0	
4	0	0	0	0	0	514	511	512	32	0	
5	0	0	0	0	0	513	511	510	32	0	
6	0	0	0	0	0	513	510	511	31	0	
7	0	0	0	0	2	512	510	512	31	0	
8	0	0	0	0	0	513	509	512	32	0	
9	0	0	0	0	0	513	509	510	31	0	
10	0	0	0	0	0	514	509	508	31	0	
11	0	0	0	0	0	514	509	510	31	0	
12	0	0	0	0	0	516	511	512	32	0	
13	0	0	0	0	0	514	513	513	31	0	
14	0	0	0	0	0	514	508	510	31	0	
15	0	0	0	0	2	513	506	513	31	0	
0	0	0	0	0	0	513	504	515	32	0	
1	0	0	0	0	0	511	507	514	32	0	
2	0	0	0	0	0	515	508	512	32	0	
3	0	0	0	0	0	514	510	510	32	0	
4	0	0	0	0	0	513	509	512	31	0	
5	0	0	0	0	0	512	508	509	32	0	
6	0	0	0	0	0	513	509	512	31	0	
7	0	0	0	0	2	513	510	514	32	0	
8	0	0	0	0	0	512	511	510	32	0	
9	0	0	0	0	0	511	510	507	32	0	
10	0	0	0	0	0	515	511	509	31	0	
11	0	0	0	0	0	517	511	511	32	0	
12	0	0	0	0	0	516	511	511	32	0	
13	0	0	0	0	0	515	512	510	32	0	
14	0	0	0	0	0	516	511	510	32	0	
15	0	0	0	0	2	512	509	510	31	0	
0	0	0	0	0	0	515	507	512	31	0	
1	0	0	0	0	0	515	508	512	32	0	
2	0	0	0	0	0	513	507	512	31	0	
3	0	0	0	0	0	515	507	510	31	0	
4	0	0	0	0	0	516	506	510	32	0	
5	0	0	0	0	0	514	507	511	32	0	
6	0	0	0	0	0	514	511	512	31	0	
7	0	0	0	0	2	514	508	513	31	0	
8	0	0	0	0	0	515	510	513	32	0	
9	0	0	0	0	0	514	512	512	32	0	
10	0	0	0	0	0	512	512	511	32	0	
11	0	0	0	0	0	512	511	511	32	0	
12	0	0	0	0	0	513	508	508	31	0	
13	0	0	0	0	0	513	506	508	31	0	
14	0	0	0	0	0	513	508	512	31	0	
15	0	0	0	0	1	512	508	512	32	0	
0	0	0	0	0	0	513	508	511	32	0	
1	0	0	0	0	0	514	508	512	31	0	
2	0	0	0	0	0	516	509	511	32	0	
3	0	0	0	0	0	514	509	512	32	0	
4	0	0	0	0	0	516	510	511	32	0	
5	0	0	0	0	0	515	511	512	31	0	
6	0	0	0	0	0	517	511	512	32	0	
7	0	0	0	0	1	515	511	513	31	0	
8	0	0	0	0	0	515	510	511	31	0	
9	0	0	0	0	0	510	510	509	32	0	
10	0	0	0	0	0	507	511	511	31	0	
11	0	0	0	0	0	512	511	511	32	0	
12	0	0	0	0	0	514	508	511	32	0	
13	0	0	0	0	0	513	512	511	31	0	
14	0	0	0	0	0	512	511	512	31	0	
15	0	0	0	0	2	512	510	510	31	0	
0	0	0	0	0	0	512	510	510	32	0	
1	0	0	0	0	0	513	508	508	31	0	
2	0	0	0	0	0	518	506	509	31	0	
3	0	0	0	0	0	516	508	510	31	0	
4	0	0	0	0	0	516	506	510	31	0	
5	0	0	0	0	0	516	508	511	32	0	
6	0	0	0	0	0	517	511	508	32	0	
7	0	0	0	0	2	512	511	511	32	0	
8	0	0	0	0	0	513	513	512	32	0	
9	0	0	0	0	0	513	511	513	32	0	
10	0	0	0	0	0	511	508	512	32	0	
11	0	0	0	0	0	512	510	510	32	0	
12	0	0	0	0	0	514	509	513	32	0	
13	0	0	0	0	0	513	509	513	32	0	
14	0	0	0	0	0	511	509	511	31	0	
15	0	0	0	0	2	512	508	510	31	0	
0	0	0	0	0	0	514	508	511	31	0	
1	0	0	0	0	0	513	508	509	31	0	
2	0	0	0	0	0	512	508	510	31	0	
3	0	0	0	0	0	514	508	510	31	0	
4	0	0	0	0	0	513	508	509	31	0	
5	0	0	0	0	0	515	506	512	32	0	
6	0	0	0	0	0	513	507	511	31	0	
7	0	0	0	0	2	512	510	510	32	0	
8	0	0	0	0	0	514	508	510	32	0	
9	0	0	0	0	0	515	509	514	32	0	
10	0	0	0	0	0	515	510	514	31	0	
11	0	0	0	0	0	516	511	513	31	0	
12	0	0	0	0	0	515	512	511	32	0	
13	0	0	0	0	0	513	512	511	31	0	
14	0	0	0	0	0	514	510	510	32	0	
15	0	0	0	0	2	514	510	510	31	0	
0	0	0	0	0	0	515	510	510	32	0	
1	0	0	0	0	0	512	508	510	31	0	
2	0	0	0	0	0	510	510	512	31	0	
3	0	0	0	0	0	511	510	512	31	0	
4	0	0	0	0	0	512	508	513	31	0	
5	0	0	0	0	0	513	507	513	31	0	
6	0	0	0	0	0	514	510	510	32	0	
7	0	0	0	0	2	515	512	510	32	0	
8	0	0	0	0	0	515	511	508	32	0	
9	0	0	0	0	0	513	507	512	32	0	
10	0	0	0	0	0	516	508	512	32	0	
11	0	0	0	0	0	515	510	511	32	0	
12	0	0	0	0	0	512	508	511	32	0	
13	0	0	0	0	0	515	507	511	32	0	
14	0	0	0	0	0	515	508	512	32	0	
15	0	0	0	0	2	513	509	512	32	0	
0	0	0	0	0	0	515	508	511	32	0	
1	0	0	0	0	0	514	510	515	32	0	
2	0	0	0	0	0	513	507	512	31	0	
3	0	0	0	0	0	514	510	510	31	0	
4	0	0	0	0	0	514	508	509	31	0	
5	0	0	0	0	0	514	504	510	31	0	
6	0	0	0	0	0	513	506	510	31	0	
7	0	0	0	0	2	515	509	508	31	0	
8	0	0	0	0	0	512	510	512	32	0	
9	0	0	0	0	0	513	511	513	32	0	
10	0	0	0	0	0	512	510	510	32	0	
11	0	0	0	0	0	512	514	511	31	0	
12	0	0	0	0	0	512	513	510	31	0	
13	0	0	0	0	0	514	515	511	31	0	
14	0	0	0	0	0	513	511	511	32	0	
15	0	0	0	0	2	513	509	509	32	0	
0	0	0	0	0	0	513	509	512	32	0	
1	0	0	0	0	0	514	508	512	32	0	
2	0	0	0	0	0	516	509	511	31	0	
3	0	0	0	0	0	514	508	513	31	0	
4	0	0	0	0	0	516	510	510	31	0	
5	0	0	0	0	0	515	508	511	32	0	
6	0	0	0	0	0	517	510	510	31	0	
7	0	0	0	0	2	516	508	511	31	0	
8	0	0	0	0	0	515	507	511	32	0	
9	0	0	0	0	0	516	508	511	31	0	
10	0	0	0	0	0	515	509	511	31	0	
11	0	0	0	0	0	514	511	511	31	0	
12	0	0	0	0	0	514	512	510	32	0	
13	0	0	0	0	0	513	512	510	32	0	
14	0	0	0	0	0	513	508	511	32	0	
15	0	0	0	0	2	515	508	512	31	0	
0	0	0	0	0	0	514	508	513	31	0	
1	0	0	0	0	0	512	508	511	31	0	
2	0	0	0	0	0	514	510	511	31	0	
3	0	0	0	0	0	513	510	510	31	0	
4	0	0	0	0	0	512	510	512	31	0	
5	0	0	0	0	0	513	508	511	31	0	
6	0	0	0	0	0	512	508	508	31	0	
7	0	0	0	0	1	513	508	510	32	0	
8	0	0	0	0	0	514	510	509	32	0	
9	0	0	0	0	0	513	509	509	31	0	
10	0	0	0	0	0	510	509	510	31	0	
11	0	0	0	0	0	512	509	511	32	0	
12	0	0	0	0	0	510	509	511	32	0	
13	0	0	0	0	0	511	509	513	32	0	
14	0	0	0	0	0	512	509	516	32	0	
15	0	0	0	0	1	513	508	515	32	0	
0	0	0	0	0	0	515	509	511	32	0	
1	0	0	0	0	0	515	508	512	31	0	
2	0	0	0	0	0	515	508	515	31	0	
3	0	0	0	0	0	516	510	512	32	0	
4	0	0	0	0	0	516	508	508	31	0	
5	0	0	0	0	0	516	510	508	31	0	
6	0	0	0	0	0	516	512	509	31	0	
7	0	0	0	0	1	513	511	511	32	0	
8	0	0	0	0	0	515	513	510	31	0	
9	0	0	0	0	0	515	507	510	32	0	
10	0	0	0	0	0	514	509	511	32	0	
11	0	0	0	0	0	512	511	511	32	0	
12	0	0	0	0	0	512	510	512	32	0	
13	0	0	0	0	0	513	511	511	32	0	
14	0	0	0	0	0	511	510	511	32	0	
15	0	0	0	0	2	511	510	511	31	0	
0	0	0	0	0	0	511	511	512	32	0	
1	0	0	0	0	0	512	509	512	32	0	
2	0	0	0	0	0	514	512	511	32	0	
3	0	0	0	0	0	513	509	512	32	0	
4	0	0	0	0	0	516	512	511	32	0	
5	0	0	0	0	0	516	510	513	32	0	
6	0	0	0	0	0	517	509	510	32	0	
7	0	0	0	0	2	517	508	510	31	0	
8	0	0	0	0	0	516	508	511	31	0	
9	0	0	0	0	0	515	510	509	31	0	
10	0	0	0	0	0	513	511	511	31	0	
11	0	0	0	0	0	514	510	508	31	0	
12	0	0	0	0	0	512	509	508	31	0	
13	0	0	0	0	0	512	507	510	31	0	
14	0	0	0	0	0	513	508	514	31	0	
15	0	0	0	0	2	515	506	513	32	0	
0	0	0	0	0	0	513	509	515	32	0	
1	0	0	0	0	0	513	509	514	32	0	
2	0	0	0	0	0	512	511	512	32	0	
3	0	0	0	0	0	517	513	512	32	0	
4	0	0	0	0	0	516	512	511	32	0	
5	0	0	0	0	0	517	511	510	31	0	
6	0	0	0	0	0	516	510	508	31	0	
7	0	0	0	0	2	514	508	512	31	0	
8	0	0	0	0	0	515	511	511	31	0	
9	0	0	0	0	0	515	509	513	32	0	
10	0	0	0	0	0	515	510	513	31	0	
11	0	0	0	0	0	514	510	511	31	0	
12	0	0	0	0	0	513	511	508	31	0	
13	0	0	0	0	0	508	512	507	31	0	
14	0	0	0	0	0	509	510	509	31	0	
15	0	0	0	0	2	508	508	509	31	0	
0	0	0	0	0	0	508	507	510	32	0	
1	0	0	0	0	0	509	508	513	32	0	
2	0	0	0	0	0	511	509	511	32	0	
3	0	0	0	0	0	512	507	512	32	0	
4	0	0	0	0	0	514	504	510	32	0	
5	0	0	0	0	0	516	508	511	32	0	
6	0	0	0	0	0	515	510	512	32	0	
7	0	0	0	0	2	517	510	510	31	0	
8	0	0	0	0	0	516	510	512	32	0	
9	0	0	0	0	0	516	509	512	32	0	
10	0	0	0	0	0	517	505	513	32	0	
11	0	0	0	0	0	519	508	510	31	0	
12	0	0	0	0	0	516	512	510	32	0	
13	0	0	0	0	0	515	512	510	32	0	
14	0	0	0	0	0	517	513	509	32	0	
15	0	0	0	0	2	514	514	508	32	0	
0	0	0	0	0	0	511	512	510	31	0	
1	0	0	0	0	0	510	508	508	31	0	
2	0	0	0	0	0	509	508	514	31	0	
3	0	0	0	0	0	512	505	513	31	0	
4	0	0	0	0	0	513	508	511	32	0	
5	0	0	0	0	0	513	509	512	32	0	
6	0	0	0	0	0	513	510	513	32	0	
7	0	0	0	0	2	514	514	516	32	0	
8	0	0	0	0	0	513	509	513	32	0	
9	0	0	0	0	0	518	510	514	32	0	
10	0	0	0	0	0	517	511	511	32	0	
11	0	0	0	0	0	516	510	511	31	0	
12	0	0	0	0	0	515	512	512	32	0	
13	0	0	0	0	0	515	510	509	32	0	
14	0	0	0	0	0	515	512	504	31	0	
15	0	0	0	0	2	514	508	508	31	0	
0	0	0	0	0	0	510	508	509	32	0	
1	0	0	0	0	0	514	506	511	31	0	
2	0	0	0	0	0	508	506	511	32	0	
3	0	0	0	0	0	511	507	509	32	0	
4	0	0	0	0	0	514	507	508	32	0	
5	0	0	0	0	0	514	506	509	31	0	
6	0	0	0	0	0	513	507	511	32	0	
7	0	0	0	0	2	514	505	513	31	0	
8	0	0	0	0	0	515	506	513	32	0	
9	0	0	0	0	0	515	511	509	32	0	
10	0	0	0	0	0	515	511	508	32	0	
11	0	0	0	0	0	515	513	514	32	0	
12	0	0	0	0	0	513	515	515	31	0	
13	0	0	0	0	0	514	513	514	31	0	
14	0	0	0	0	0	514	511	510	31	0	
15	0	0	0	0	2	512	512	509	31	0	
0	0	0	0	0	0	511	513	510	31	0	
1	0	0	0	0	0	512	511	513	32	0	
2	0	0	0	0	0	511	511	514	32	0	
3	0	0	0	0	0	509	508	512	32	0	
4	0	0	0	0	0	515	511	508	32	0	
5	0	0	0	0	0	517	508	510	31	0	
6	0	0	0	0	0	511	509	509	31	0	
7	0	0	0	0	1	512	506	512	31	0	
8	0	0	0	0	0	513	508	513	32	0	
9	0	0	0	0	0	514	508	512	31	0	
10	0	0	0	0	0	516	508	513	31	0	
11	0	0	0	0	0	516	510	515	32	0	
12	0	0	0	0	0	516	508	511	32	0	
13	0	0	0	0	0	516	510	514	31	0	
14	0	0	0	0	0	519	507	513	31	0	
15	0	0	0	0	1	519	510	512	31	0	
0	0	0	0	0	0	514	509	511	32	0	
1	0	0	0	0	0	512	509	511	32	0	
2	0	0	0	0	0	511	515	511	32	0	
3	0	0	0	0	0	513	512	510	32	0	
4	0	0	0	0	0	512	514	512	32	0	
5	0	0	0	0	0	516	512	513	32	0	
6	0	0	0	0	0	512	509	513	31	0	
7	0	0	0	0	1	515	508	506	31	0	
8	0	0	0	0	0	514	504	507	31	0	
9	0	0	0	0	0	515	504	505	31	0	
10	0	0	0	0	0	515	504	509	31	0	
11	0	0	0	0	0	516	507	511	32	0	
12	0	0	0	0	0	514	508	508	32	0	
13	0	0	0	0	0	513	510	509	32	0	
14	0	0	0	0	0	513	511	509	32	0	
15	0	0	0	0	2	512	510	509	32	0	
0	0	0	0	0	0	516	511	513	32	0	
1	0	0	0	0	0	515	510	512	32	0	
2	0	0	0	0	0	511	509	515	32	0	
3	0	0	0	0	0	513	508	513	32	0	
4	0	0	0	0	0	512	508	514	32	0	
5	0	0	0	0	0	510	512	515	32	0	
6	0	0	0	0	0	512	510	511	32	0	
7	0	0	0	0	2	512	511	512	31	0	
8	0	0	0	0	0	515	511	514	31	0	
9	0	0	0	0	0	514	510	512	31	0	
10	0	0	0	0	0	514	508	511	31	0	
11	0	0	0	0	0	515	506	508	31	0	
12	0	0	0	0	0	513	505	508	31	0	
13	0	0	0	0	0	515	505	510	32	0	
14	0	0	0	0	0	514	507	509	32	0	
15	0	0	0	0	2	514	507	513	31	0	
0	0	0	0	0	0	514	510	515	32	0	
1	0	0	0	0	0	515	512	513	32	0	
2	0	0	0	0	0	515	513	511	31	0	
3	0	0	0	0	0	511	512	510	31	0	
4	0	0	0	0	0	512	511	511	32	0	
5	0	0	0	0	0	510	510	510	32	0	
6	0	0	0	0	0	511	509	510	32	0	
7	0	0	0	0	2	512	506	513	32	0	
8	0	0	0	0	0	515	507	513	32	0	
9	0	0	0	0	0	518	510	511	32	0	
10	0	0	0	0	0	515	512	513	32	0	
11	0	0	0	0	0	515	514	515	32	0	
12	0	0	0	0	0	517	514	513	32	0	
13	0	0	0	0	0	515	513	510	31	0	
14	0	0	0	0	0	514	509	507	31	0	
15	0	0	0	0	2	512	505	509	31	0	
0	0	0	0	0	0	516	502	510	31	0	
1	0	0	0	0	0	514	504	509	31	0	
2	0	0	0	0	0	513	507	508	32	0	
3	0	0	0	0	0	513	507	511	32	0	
4	0	0	0	0	0	512	510	511	32	0	
5	0	0	0	0	0	512	511	512	32	0	
6	0	0	0	0	0	511	511	512	31	0	
7	0	0	0	0	2	512	510	511	31	0	
8	0	0	0	0	0	515	509	512	32	0	
9	0	0	0	0	0	515	512	515	32	0	
10	0	0	0	0	0	518	511	514	32	0	
11	0	0	0	0	0	519	511	511	32	0	
12	0	0	0	0	0	515	513	508	31	0	
13	0	0	0	0	0	512	511	509	31	0	
14	0	0	0	0	0	513	509	511	31	0	
15	0	0	0	0	2	512	507	512	32	0	
0	0	0	0	0	0	508	511	511	32	0	
1	0	0	0	0	0	511	510	513	32	0	
2	0	0	0	0	0	512	511	514	32	0	
3	0	0	0	0	0	515	512	510	32	0	
4	0	0	0	0	0	514	512	508	31	0	
5	0	0	0	0	0	512	513	511	31	0	
6	0	0	0	0	0	514	509	514	31	0	
7	0	0	0	0	2	516	511	512	32	0	
8	0	0	0	0	0	516	508	512	32	0	
9	0	0	0	0	0	516	510	510	32	0	
10	0	0	0	0	0	516	507	511	32	0	
11	0	0	0	0	0	516	505	510	32	0	
12	0	0	0	0	0	514	504	508	31	0	
13	0	0	0	0	0	515	509	510	31	0	
14	0	0	0	0	0	514	511	510	32	0	
15	0	0	0	0	2	512	513	511	32	0	
0	0	0	0	0	0	511	514	511	32	0	
1	0	0	0	0	0	513	511	511	31	0	
2	0	0	0	0	0	514	507	507	31	0	
3	0	0	0	0	0	518	504	511	31	0	
4	0	0	0	0	0	518	504	511	31	0	
5	0	0	0	0	0	517	502	511	31	0	
6	0	0	0	0	0	515	505	512	31	0	
7	0	0	0	0	2	512	507	511	31	0	
8	0	0	0	0	0	508	510	504	31	0	
9	0	0	0	0	0	508	506	506	31	0	
10	0	0	0	0	0	507	508	512	32	0	
11	0	0	0	0	0	510	510	512	32	0	
12	0	0	0	0	0	511	510	511	32	0	
13	0	0	0	0	0	513	511	514	31	0	
14	0	0	0	0	0	516	512	512	31	0	
15	0	0	0	0	2	516	514	510	31	0	
0	0	0	0	0	0	518	515	512	31	0	
1	0	0	0	0	0	517	512	513	32	0	
2	0	0	0	0	0	514	513	514	32	0	
3	0	0	0	0	0	512	512	516	32	0	
4	0	0	0	0	0	512	511	516	32	0	
5	0	0	0	0	0	513	511	511	31	0	
6	0	0	0	0	0	514	511	507	32	0	
7	0	0	0	0	1	510	510	510	32	0	
8	0	0	0	0	0	510	511	510	32	0	
9	0	0	0	0	0	514	509	511	32	0	
10	0	0	0	0	0	514	508	510	31	0	
11	0	0	0	0	0	517	507	511	31	0	
12	0	0	0	0	0	517	505	510	32	0	
13	0	0	0	0	0	519	504	507	32	0	
14	0	0	0	0	0	521	506	508	32	0	
15	0	0	0	0	1	518	506	508	32	0	
0	0	0	0	0	0	515	510	510	31	0	
1	0	0	0	0	0	512	512	510	31	0	
2	0	0	0	0	0	511	511	513	31	0	
3	0	0	0	0	0	511	510	512	31	0	
4	0	0	0	0	0	515	509	516	32	0	
5	0	0	0	0	0	515	511	515	32	0	
6	0	0	0	0	0	516	508	510	32	0	
7	0	0	0	0	2	516	510	508	31	0	
8	0	0	0	0	0	514	510	507	32	0	
9	0	0	0	0	0	515	510	511	32	0	
10	0	0	0	0	0	514	508	513	32	0	
11	0	0	0	0	0	516	505	513	32	0	
12	0	0	0	0	0	516	506	510	31	0	
13	0	0	0	0	0	514	506	510	31	0	
14	0	0	0	0	0	515	505	510	31	0	
15	0	0	0	0	2	516	507	514	32	0	
0	0	0	0	0	0	510	510	512	32	0	
1	0	0	0	0	0	510	511	512	31	0	
2	0	0	0	0	0	512	516	513	32	0	
3	0	0	0	0	0	515	516	511	31	0	
4	0	0	0	0	0	511	513	511	31	0	
5	0	0	0	0	0	513	512	510	31	0	
6	0	0	0	0	0	512	509	510	31	0	
7	0	0	0	0	2	510	510	510	32	0	
8	0	0	0	0	0	514	511	511	32	0	
9	0	0	0	0	0	515	510	511	32	0	
10	0	0	0	0	0	514	512	512	32	0	
11	0	0	0	0	0	512	507	511	31	0	
12	0	0	0	0	0	510	509	513	32	0	
13	0	0	0	0	0	510	509	512	31	0	
14	0	0	0	0	0	511	508	512	31	0	
15	0	0	0	0	2	515	508	509	32	0	
0	0	0	0	0	0	515	507	508	32	0	
1	0	0	0	0	0	513	509	512	32	0	
2	0	0	0	0	0	516	511	513	32	0	
3	0	0	0	0	0	513	510	512	32	0	
4	0	0	0	0	0	514	512	512	31	0	
5	0	0	0	0	0	515	512	513	32	0	
6	0	0	0	0	0	517	508	510	32	0	
7	0	0	0	0	2	515	507	511	31	0	
8	0	0	0	0	0	514	507	508	31	0	
9	0	0	0	0	0	518	504	510	31	0	
10	0	0	0	0	0	518	508	508	31	0	
11	0	0	0	0	0	515	512	511	31	0	
12	0	0	0	0	0	517	509	514	32	0	
13	0	0	0	0	0	514	510	511	32	0	
14	0	0	0	0	0	516	508	511	32	0	
15	0	0	0	0	2	517	508	510	32	0	
0	0	0	0	0	0	512	508	514	32	0	
1	0	0	0	0	0	508	510	515	31	0	
2	0	0	0	0	0	509	512	512	31	0	
3	0	0	0	0	0	508	512	508	31	0	
4	0	0	0	0	0	511	514	510	31	0	
5	0	0	0	0	0	515	508	511	31	0	
6	0	0	0	0	0	514	508	513	32	0	
7	0	0	0	0	2	515	510	514	32	0	
8	0	0	0	0	0	517	513	513	32	0	
9	0	0	0	0	0	517	515	513	32	0	
10	0	0	0	0	0	516	512	511	32	0	
11	0	0	0	0	0	518	513	510	32	0	
12	0	0	0	0	0	515	512	511	32	0	
13	0	0	0	0	0	516	511	511	32	0	
14	0	0	0	0	0	515	509	509	31	0	
15	0	0	0	0	2	511	507	510	31	0	
0	0	0	0	0	0	509	508	510	31	0	
1	0	0	0	0	0	511	507	511	31	0	
2	0	0	0	0	0	508	508	512	31	0	
3	0	0	0	0	0	510	507	512	31	0	
4	0	0	0	0	0	510	507	506	31	0	
5	0	0	0	0	0	512	508	506	31	0	
6	0	0	0	0	0	513	506	508	31	0	
7	0	0	0	0	2	519	508	511	32	0	
8	0	0	0	0	0	515	505	511	32	0	
9	0	0	0	0	0	518	506	510	32	0	
10	0	0	0	0	0	515	509	512	32	0	
11	0	0	0	0	0	512	511	515	32	0	
12	0	0	0	0	0	511	510	515	31	0	
13	0	0	0	0	0	514	510	512	31	0	
14	0	0	0	0	0	510	507	511	31	0	
15	0	0	0	0	2	514	511	512	31	0	
0	0	0	0	0	0	517	515	515	31	0	
1	0	0	0	0	0	518	513	513	32	0	
2	0	0	0	0	0	519	513	511	32	0	
3	0	0	0	0	0	516	511	510	31	0	
4	0	0	0	0	0	519	508	512	31	0	
5	0	0	0	0	0	518	507	513	31	0	
6	0	0	0	0	0	517	509	511	32	0	
7	0	0	0	0	2	514	507	512	31	0	
8	0	0	0	0	0	511	509	511	32	0	
9	0	0	0	0	0	509	509	512	31	0	
10	0	0	0	0	0	510	507	507	32	0	
11	0	0	0	0	0	512	505	509	32	0	
12	0	0	0	0	0	508	507	511	32	0	
13	0	0	0	0	0	508	508	507	31	0	
14	0	0	0	0	0	510	510	508	31	0	
15	0	0	0	0	1	511	513	510	31	0	
0	0	0	0	0	0	515	512	516	32	0	
1	0	0	0	0	0	517	512	516	32	0	
2	0	0	0	0	0	518	512	511	32	0	
3	0	0	0	0	0	522	510	513	32	0	
4	0	0	0	0	0	522	506	518	32	0	
5	0	0	0	0	0	520	511	513	32	0	
6	0	0	0	0	0	520	511	508	32	0	
7	0	0	0	0	1	513	508	503	31	0	
8	0	0	0	0	0	502	508	501	31	0	
9	0	0	0	0	0	503	508	508	31	0	
10	0	0	0	0	0	504	511	513	32	0	
11	0	0	0	0	0	506	513	514	32	0	
12	0	0	0	0	0	516	512	511	32	0	
13	0	0	0	0	0	517	510	509	32	0	
14	0	0	0	0	0	517	508	511	32	0	
15	0	0	0	0	1	512	508	510	32	0	
0	0	0	0	0	0	513	506	511	32	0	
1	0	0	0	0	0	513	507	511	31	0	
2	0	0	0	0	0	515	507	511	31	0	
3	0	0	0	0	0	518	507	509	31	0	
4	0	0	0	0	0	516	507	508	32	0	
5	0	0	0	0	0	515	505	510	31	0	
6	0	0	0	0	0	516	511	513	32	0	
7	0	0	0	0	2	515	512	516	31	0	
8	0	0	0	0	0	515	515	512	31	0	
9	0	0	0	0	0	514	512	509	31	0	
10	0	0	0	0	0	513	512	508	31	0	
11	0	0	0	0	0	510	512	510	31	0	
12	0	0	0	0	0	511	512	512	32	0	
13	0	0	0	0	0	510	512	511	32	0	
14	0	0	0	0	0	516	509	513	32	0	
15	0	0	0	0	2	519	508	516	32	0	
0	0	0	0	0	0	518	511	514	31	0	
1	0	0	0	0	0	515	510	512	31	0	
2	0	0	0	0	0	515	506	510	31	0	
3	0	0	0	0	0	516	504	510	32	0	
4	0	0	0	0	0	516	507	512	32	0	
5	0	0	0	0	0	519	509	513	32	0	
6	0	0	0	0	0	518	510	510	32	0	
7	0	0	0	0	2	521	511	511	31	0	
8	0	0	0	0	0	516	512	509	32	0	
9	0	0	0	0	0	514	511	504	32	0	
10	0	0	0	0	0	512	509	508	32	0	
11	0	0	0	0	0	505	509	512	32	0	
12	0	0	0	0	0	504	510	514	32	0	
13	0	0	0	0	0	503	510	518	32	0	
14	0	0	0	0	0	502	511	518	32	0	
15	0	0	0	0	2	504	509	517	32	0	
0	0	0	0	0	0	511	508	515	31	0	
1	0	0	0	0	0	515	508	510	31	0	
2	0	0	0	0	0	519	508	510	32	0	
3	0	0	0	0	0	519	510	512	32	0	
4	0	0	0	0	0	522	512	511	32	0	
5	0	0	0	0	0	528	508	514	32	0	
6	0	0	0	0	0	523	510	514	32	0	
7	0	0	0	0	2	516	509	508	32	0	
8	0	0	0	0	0	510	510	506	31	0	
9	0	0	0	0	0	504	505	503	31	0	
10	0	0	0	0	0	503	505	510	31	0	
11	0	0	0	0	0	509	501	510	31	0	
12	0	0	0	0	0	516	503	508	31	0	
13	0	0	0	0	0	525	507	511	32	0	
14	0	0	0	0	0	531	512	518	32	0	
15	0	0	0	0	2	526	507	514	32	0	
0	0	0	0	0	0	515	512	507	32	0	
1	0	0	0	0	0	502	517	504	32	0	
2	0	0	0	0	0	500	516	507	32	0	
3	0	0	0	0	0	512	511	512	31	0	
4	0	0	0	0	0	522	507	514	31	0	
5	0	0	0	0	0	514	502	511	32	0	
6	0	0	0	0	0	512	503	508	31	0	
7	0	0	0	0	2	504	511	510	31	0	
8	0	0	0	0	0	508	511	517	32	0	
9	0	0	0	0	0	525	513	523	32	0	
10	0	0	0	0	0	522	515	517	32	0	
11	0	0	0	0	0	518	516	508	31	0	
12	0	0	0	0	0	519	509	505	31	0	
13	0	0	0	0	0	507	505	505	31	0	
14	0	0	0	0	0	505	507	510	31	0	
15	0	0	0	0	2	512	510	511	31	0	
0	0	0	0	0	0	513	503	518	32	0	
1	0	0	0	0	0	518	506	515	32	0	
2	0	0	0	0	0	530	507	516	32	0	
3	0	0	0	0	0	539	512	520	32	0	
4	0	0	0	0	0	533	520	504	32	0	
5	0	0	0	0	0	519	514	496	32	0	
6	0	0	0	0	0	519	505	501	32	0	
7	0	0	0	0	2	505	506	505	31	0	
8	0	0	0	0	0	500	509	512	31	0	
9	0	0	0	0	0	487	510	511	31	0	
10	0	0	0	0	0	479	513	507	31	0	
11	0	0	0	0	0	482	514	511	31	0	
12	0	0	0	0	0	506	507	521	31	0	
13	0	0	0	0	0	527	508	521	32	0	
14	0	0	0	0	1	535	504	512	32	0	
15	0	0	0	0	2	539	500	505	32	0	
0	0	0	0	0	0	519	504	498	32	0	
1	0	0	0	0	0	497	506	507	31	0	
2	0	0	0	0	0	508	507	522	31	0	
3	0	0	0	0	0	516	515	524	32	0	
4	0	0	0	0	0	502	521	517	32	0	
5	0	0	0	0	0	488	513	505	32	0	
6	0	0	0	0	0	483	510	505	31	0	
7	0	0	0	0	2	490	513	514	31	0	
8	0	0	0	0	0	500	510	515	31	0	
9	0	0	0	0	0	517	505	512	31	0	
10	0	0	0	0	0	524	504	513	32	0	
11	0	0	0	0	0	524	505	509	32	0	
12	0	0	0	0	0	535	512	512	32	0	
13	0	0	0	0	0	535	513	512	32	0	
14	0	0	0	0	0	534	514	513	32	0	
15	0	0	0	0	1	532	518	513	32	0	
0	0	0	0	0	0	524	512	510	32	0	
1	0	0	0	0	0	518	504	508	32	0	
2	0	0	0	0	0	517	499	506	32	0	
3	0	0	0	0	0	517	495	513	32	0	
4	0	0	0	0	0	512	505	514	31	0	
5	0	0	0	0	0	507	509	507	31	0	
6	0	0	0	0	0	502	505	508	31	0	
7	0	0	0	0	1	500	506	516	31	0	
8	0	0	0	0	0	511	512	519	31	0	
9	0	0	0	0	0	515	513	515	32	0	
10	0	0	0	0	0	524	510	510	32	0	
11	0	0	0	0	0	522	512	512	31	0	
12	0	0	0	0	0	519	511	508	31	0	
13	0	0	0	0	0	517	508	506	32	0	
14	0	0	0	0	0	512	512	513	32	0	
15	0	0	0	0	1	511	513	514	32	0	
0	0	0	0	0	0	512	514	512	31	0	
1	0	0	0	0	0	510	513	508	31	0	
2	0	0	0	0	0	508	510	507	31	0	
3	0	0	0	0	0	516	504	506	32	0	
4	0	0	0	0	0	518	505	509	32	0	
5	0	0	0	0	0	517	510	519	32	0	
6	0	0	0	0	1	516	512	518	32	0	
7	0	0	0	0	2	520	514	513	32	0	
8	0	0	0	0	0	518	511	505	31	0	
9	0	0	0	0	0	515	510	504	31	0	
10	0	0	0	0	0	505	510	508	31	0	
11	0	0	0	0	0	502	510	513	31	0	
12	0	0	0	0	0	505	511	515	32	0	
13	0	0	0	0	0	508	512	515	31	0	
14	0	0	0	0	0	512	512	512	31	0	
15	0	0	0	0	2	515	509	512	32	0	
0	0	0	0	0	0	519	506	510	32	0	
1	0	0	0	0	0	519	506	511	32	0	
2	0	0	0	0	0	519	510	513	32	0	
3	0	0	0	0	0	519	509	512	32	0	
4	0	0	0	0	0	512	511	509	31	0	
5	0	0	0	0	0	511	509	507	31	0	
6	0	0	0	0	0	514	509	509	32	0	
7	0	0	0	0	2	515	508	513	32	0	
8	0	0	0	0	0	517	507	512	32	0	
9	0	0	0	0	0	515	505	512	32	0	
10	0	0	0	0	0	513	508	508	31	0	
11	0	0	0	0	0	514	510	509	32	0	
12	0	0	0	0	0	514	512	512	32	0	
13	0	0	0	0	0	511	511	513	32	0	
14	0	0	0	0	0	512	513	514	31	0	
15	0	0	0	0	2	513	510	515	31	0	
0	0	0	0	0	0	515	511	512	31	0	
1	0	0	0	0	0	515	508	511	32	0	
2	0	0	0	0	0	514	508	509	32	0	
3	0	0	0	0	0	513	507	507	31	0	
4	0	0	0	0	0	513	508	509	32	0	
5	0	0	0	0	0	514	506	508	32	0	
6	0	0	0	0	0	513	510	511	32	0	
7	0	0	0	0	2	512	510	512	31	0	
8	0	0	0	0	0	512	508	511	31	0	
9	0	0	0	0	0	515	511	512	31	0	
10	0	0	0	0	0	517	510	512	31	0	
11	0	0	0	0	0	516	507	512	31	0	
12	0	0	0	0	0	515	509	512	32	0	
13	0	0	0	0	0	517	512	511	32	0	
14	0	0	0	0	0	519	508	513	32	0	
15	0	0	0	0	2	516	512	512	32	0	
0	0	0	0	0	0	511	512	511	32	0	
1	0	0	0	0	0	508	512	508	32	0	
2	0	0	0	0	0	512	515	510	31	0	
3	0	0	0	0	0	514	512	511	31	0	
4	0	0	0	0	0	511	513	511	31	0	
5	0	0	0	0	0	514	510	511	32	0	
6	0	0	0	0	0	513	509	511	31	0	
7	0	0	0	0	2	515	508	511	32	0	
8	0	0	0	0	0	517	509	511	31	0	
9	0	0	0	0	0	513	510	511	32	0	
10	0	0	0	0	0	513	504	513	32	0	
11	0	0	0	0	0	515	508	512	32	0	
12	0	0	0	0	0	517	508	513	31	0	
13	0	0	0	0	0	517	509	513	32	0	
14	0	0	0	0	0	513	507	509	32	0	
15	0	0	0	0	2	511	508	510	32	0	
0	0	0	0	0	0	512	509	510	32	0	
1	0	0	0	0	0	510	513	514	32	0	
2	0	0	0	0	0	513	511	512	32	0	
3	0	0	0	0	0	516	512	512	31	0	
4	0	0	0	0	0	517	514	510	31	0	
5	0	0	0	0	0	513	511	509	31	0	
6	0	0	0	0	0	512	507	511	32	0	
7	0	0	0	0	2	512	508	510	32	0	
8	0	0	0	0	0	514	512	509	31	0	
9	0	0	0	0	0	516	509	508	32	0	
10	0	0	0	0	0	514	508	511	32	0	
11	0	0	0	0	0	513	508	513	31	0	
12	0	0	0	0	0	515	510	514	31	0	
13	0	0	0	0	0	515	510	512	32	0	
14	0	0	0	0	0	513	511	513	32	0	
15	0	0	0	0	2	514	510	511	31	0	
0	0	0	0	0	0	514	509	510	32	0	
1	0	0	0	0	0	513	511	510	31	0	
2	0	0	0	0	0	514	511	512	32	0	
3	0	0	0	0	0	512	508	512	32	0	
4	0	0	0	0	0	516	510	513	32	0	
5	0	0	0	0	0	515	512	513	31	0	
6	0	0	0	0	0	517	510	510	31	0	
7	0	0	0	0	2	515	508	507	31	0	
8	0	0	0	0	0	515	505	507	31	0	
9	0	0	0	0	0	516	508	511	31	0	
10	0	0	0	0	0	514	509	510	31	0	
11	0	0	0	0	0	511	512	513	31	0	
12	0	0	0	0	0	513	511	516	31	0	
13	0	0	0	0	0	511	511	517	32	0	
14	0	0	0	0	0	512	510	512	31	0	
15	0	0	0	0	1	515	513	510	32	0	
0	0	0	0	0	0	516	511	507	32	0	
1	0	0	0	0	0	515	508	508	31	0	
2	0	0	0	0	0	516	509	507	31	0	
3	0	0	0	0	0	513	507	508	32	0	
4	0	0	0	0	0	510	509	510	31	0	
5	0	0	0	0	0	510	510	510	32	0	
6	0	0	0	0	0	513	508	511	32	0	
7	0	0	0	0	1	511	508	513	32	0	
8	0	0	0	0	0	514	509	514	32	0	
9	0	0	0	0	0	517	510	513	32	0	
10	0	0	0	0	0	515	508	511	32	0	
11	0	0	0	0	0	515	508	511	32	0	
12	0	0	0	0	0	513	510	510	31	0	
13	0	0	0	0	0	513	509	511	32	0	
14	0	0	0	0	0	513	511	511	31	0	
15	0	0	0	0	2	511	508	510	31	0	
0	0	0	0	0	0	509	511	511	31	0	
1	0	0	0	0	0	513	510	511	31	0	
2	0	0	0	0	0	515	511	511	31	0	
3	0	0	0	0	0	513	510	512	32	0	
4	0	0	0	0	0	517	510	514	32	0	
5	0	0	0	0	0	518	509	510	32	0	
6	0	0	0	0	0	517	508	509	31	0	
7	0	0	0	0	2	515	507	509	32	0	
8	0	0	0	0	0	515	510	512	32	0	
9	0	0	0	0	0	513	509	512	32	0	
10	0	0	0	0	0	515	510	512	32	0	
11	0	0	0	0	0	512	512	512	31	0	
12	0	0	0	0	0	514	508	513	31	0	
13	0	0	0	0	0	517	508	510	31	0	
14	0	0	0	0	0	517	507	508	31	0	
15	0	0	0	0	2	516	508	508	32	0	
0	0	0	0	0	0	516	508	511	32	0	
1	0	0	0	0	0	514	508	511	32	0	
2	0	0	0	0	0	514	510	509	32	0	
3	0	0	0	0	0	515	510	509	32	0	
4	0	0	0	0	0	512	511	509	32	0	
5	0	0	0	0	0	513	514	509	31	0	
6	0	0	0	0	0	511	513	509	31	0	
7	0	0	0	0	2	511	513	510	31	0	
8	0	0	0	0	0	511	511	511	32	0	
9	0	0	0	0	0	515	510	514	31	0	
10	0	0	0	0	0	517	506	515	31	0	
11	0	0	0	0	0	516	508	512	31	0	
12	0	0	0	0	0	513	504	511	31	0	
13	0	0	0	0	0	513	508	512	32	0	
14	0	0	0	0	0	514	507	508	32	0	
15	0	0	0	0	2	515	510	509	31	0	
0	0	0	0	0	0	511	509	508	32	0	
1	0	0	0	0	0	510	509	508	31	0	
2	0	0	0	0	0	514	512	510	31	0	
3	0	0	0	0	0	512	509	512	31	0	
4	0	0	0	0	0	512	512	514	32	0	
5	0	0	0	0	0	513	511	513	32	0	
6	0	0	0	0	0	516	510	515	32	0	
7	0	0	0	0	2	516	510	512	31	0	
8	0	0	0	0	0	513	510	511	31	0	
9	0	0	0	0	0	513	508	509	32	0	
10	0	0	0	0	0	514	512	511	32	0	
11	0	0	0	0	0	510	510	511	31	0	
12	0	0	0	0	0	512	509	511	31	0	
13	0	0	0	0	0	515	508	514	32	0	
14	0	0	0	0	0	514	507	514	32	0	
15	0	0	0	0	2	516	509	515	32	0	
0	0	0	0	0	0	515	508	514	32	0	
1	0	0	0	0	0	515	509	515	31	0	
2	0	0	0	0	0	515	509	511	31	0	
3	0	0	0	0	0	517	510	509	31	0	
4	0	0	0	0	0	513	509	504	31	0	
5	0	0	0	0	0	515	511	506	31	0	
6	0	0	0	0	0	514	509	506	31	0	
7	0	0	0	0	2	511	511	508	31	0	
8	0	0	0	0	0	512	509	511	31	0	
9	0	0	0	0	0	516	509	511	31	0	
10	0	0	0	0	0	515	510	512	32	0	
11	0	0	0	0	0	514	508	512	32	0	
12	0	0	0	0	0	515	510	513	32	0	
13	0	0	0	0	0	517	508	515	32	0	
14	0	0	0	0	0	515	508	512	32	0	
15	0	0	0	0	2	514	508	511	32	0	
0	0	0	0	0	0	514	505	511	32	0	
1	0	0	0	0	0	512	508	514	32	0	
2	0	0	0	0	0	512	511	511	32	0	
3	0	0	0	0	0	511	511	512	32	0	
4	0	0	0	0	0	511	512	513	32	0	
5	0	0	0	0	0	512	509	512	32	0	
6	0	0	0	0	0	512	512	508	32	0	
7	0	0	0	0	2	512	511	509	31	0	
8	0	0	0	0	0	511	510	510	31	0	
9	0	0	0	0	0	511	508	511	32	0	
10	0	0	0	0	0	511	510	511	31	0	
11	0	0	0	0	0	514	509	512	31	0	
12	0	0	0	0	0	515	508	511	31	0	
13	0	0	0	0	0	514	510	513	31	0	
14	0	0	0	0	0	515	507	511	31	0	
15	0	0	0	0	2	516	510	512	31	0	
0	0	0	0	0	0	516	508	513	31	0	
1	0	0	0	0	0	516	509	514	32	0	
2	0	0	0	0	0	513	509	512	32	0	
3	0	0	0	0	0	516	509	510	31	0	
4	0	0	0	0	0	513	509	512	32	0	
5	0	0	0	0	0	511	509	505	32	0	
6	0	0	0	0	0	511	513	507	32	0	
7	0	0	0	0	1	514	513	505	32	0	
8	0	0	0	0	0	514	511	510	31	0	
9	0	0	0	0	0	515	511	512	31	0	
10	0	0	0	0	0	512	512	514	32	0	
11	0	0	0	0	0	513	507	515	32	0	
12	0	0	0	0	0	515	507	519	32	0	
13	0	0	0	0	0	518	508	515	31	0	
14	0	0	0	0	0	517	508	515	31	0	
15	0	0	0	0	1	516	510	510	31	0	
0	0	0	0	0	0	514	510	510	31	0	
1	0	0	0	0	0	514	511	506	31	0	
2	0	0	0	0	0	516	510	503	32	0	
3	0	0	0	0	0	518	510	499	32	0	
4	0	0	0	0	0	515	513	494	32	0	
5	0	0	0	0	0	515	513	500	32	0	
6	0	0	0	0	0	512	514	509	31	0	
7	0	0	0	0	1	511	515	513	31	0	
8	0	0	0	0	0	510	513	515	31	0	
9	0	0	0	0	0	512	511	517	31	0	
10	0	0	0	0	0	510	510	516	31	0	
11	0	0	0	0	0	509	510	515	32	0	
12	0	0	0	0	0	512	508	517	32	0	
13	0	0	0	0	0	515	505	521	32	0	
14	0	0	0	0	0	512	504	519	32	0	
15	0	0	0	0	2	513	505	521	32	0	
0	0	0	0	0	0	512	506	518	32	0	
1	0	0	0	0	0	512	510	517	32	0	
2	0	0	0	0	0	511	507	517	32	0	
3	0	0	0	0	0	515	508	513	32	0	
4	0	0	0	0	0	516	511	512	32	0	
5	0	0	0	0	0	516	510	505	32	0	
6	0	0	0	0	0	516	511	500	31	0	
7	0	0	0	0	2	517	511	497	31	0	
8	0	0	0	0	0	515	508	494	31	0	
9	0	0	0	0	0	515	510	502	31	0	
10	0	0	0	0	0	516	510	505	31	0	
11	0	0	0	0	0	515	506	512	31	0	
12	0	0	0	0	0	512	506	515	32	0	
13	0	0	0	0	0	511	508	519	32	0	
14	0	0	0	0	0	512	507	517	32	0	
15	0	0	0	0	2	513	508	513	31	0	
0	0	0	0	0	0	513	508	511	31	0	
1	0	0	0	0	0	513	512	509	32	0	
2	0	0	0	0	0	512	507	506	31	0	
3	0	0	0	0	0	516	509	508	32	0	
4	0	0	0	0	0	515	509	510	32	0	
5	0	0	0	0	0	513	510	510	32	0	
6	0	0	0	0	0	515	511	510	32	0	
7	0	0	0	0	2	514	511	510	31	0	
8	0	0	0	0	0	516	512	512	32	0	
9	0	0	0	0	0	517	509	514	32	0	
10	0	0	0	0	0	515	511	514	31	0	
11	0	0	0	0	0	511	508	511	31	0	
12	0	0	0	0	0	514	510	510	31	0	
13	0	0	0	0	0	514	509	513	31	0	
14	0	0	0	0	0	513	508	516	31	0	
15	0	0	0	0	2	513	506	516	32	0	
0	0	0	0	0	0	512	509	515	32	0	
1	0	0	0	0	0	512	510	514	31	0	
2	0	0	0	0	0	516	508	513	31	0	
3	0	0	0	0	0	516	509	512	32	0	
4	0	0	0	0	0	516	507	515	32	0	
5	0	0	0	0	0	513	506	513	32	0	
6	0	0	0	0	0	513	510	514	32	0	
7	0	0	0	0	2	513	511	515	32	0	
8	0	0	0	0	0	513	510	507	31	0	
9	0	0	0	0	0	515	510	506	31	0	
10	0	0	0	0	0	513	508	504	31	0	
11	0	0	0	0	0	514	509	503	31	0	
12	0	0	0	0	0	515	511	503	32	0	
13	0	0	0	0	0	514	508	504	32	0	
14	0	0	0	0	0	515	508	508	32	0	
15	0	0	0	0	2	517	508	511	31	0	
0	0	0	0	0	0	515	511	513	32	0	
1	0	0	0	0	0	514	509	515	32	0	
2	0	0	0	0	0	511	507	514	32	0	
3	0	0	0	0	0	513	506	511	31	0	
4	0	0	0	0	0	514	511	515	32	0	
5	0	0	0	0	0	512	510	513	32	0	
6	0	0	0	0	0	513	507	513	32	0	
7	0	0	0	0	2	512	509	511	32	0	
8	0	0	0	0	0	513	512	511	32	0	
9	0	0	0	0	0	514	510	509	32	0	
10	0	0	0	0	0	514	510	508	32	0	
11	0	0	0	0	0	515	510	508	31	0	
12	0	0	0	0	0	515	510	508	31	0	
13	0	0	0	0	0	515	510	510	31	0	
14	0	0	0	0	0	515	510	514	31	0	
15	0	0	0	0	2	512	511	513	32	0	
0	0	0	0	0	0	514	510	512	32	0	
1	0	0	0	0	0	513	508	508	32	0	
2	0	0	0	0	0	512	508	510	31	0	
3	0	0	0	0	0	512	510	513	31	0	
4	0	0	0	0	0	514	508	508	31	0	
5	0	0	0	0	0	511	508	514	31	0	
6	0	0	0	0	0	510	508	513	32	0	
7	0	0	0	0	2	512	507	515	32	0	
8	0	0	0	0	0	515	510	515	32	0	
9	0	0	0	0	0	515	510	512	32	0	
10	0	0	0	0	0	512	510	515	32	0	
11	0	0	0	0	0	512	511	513	32	0	
12	0	0	0	0	0	515	511	510	31	0	
13	0	0	0	0	0	516	514	510	32	0	
14	0	0	0	0	0	511	511	510	32	0	
15	0	0	0	0	2	515	509	510	32	0	
0	0	0	0	0	0	515	507	511	32	0	
1	0	0	0	0	0	515	506	512	32	0	
2	0	0	0	0	0	512	506	507	31	0	
3	0	0	0	0	0	517	509	508	31	0	
4	0	0	0	0	0	516	509	512	32	0	
5	0	0	0	0	0	515	509	512	32	0	
6	0	0	0	0	0	514	510	515	32	0	
7	0	0	0	0	1	514	510	512	32	0	
8	0	0	0	0	0	515	508	513	32	0	
9	0	0	0	0	0	515	515	513	32	0	
10	0	0	0	0	0	514	513	513	32	0	
11	0	0	0	0	0	515	513	513	32	0	
12	0	0	0	0	0	515	511	509	31	0	
13	0	0	0	0	0	514	510	507	31	0	
14	0	0	0	0	0	515	508	507	31	0	
15	0	0	0	0	1	514	506	506	32	0	
0	0	0	0	0	0	512	507	511	32	0	
1	0	0	0	0	0	512	508	511	32	0	
2	0	0	0	0	0	512	510	509	32	0	
3	0	0	0	0	0	512	507	510	32	0	
4	0	0	0	0	0	512	506	512	31	0	
5	0	0	0	0	0	512	506	511	31	0	
6	0	0	0	0	0	512	509	513	31	0	
7	0	0	0	0	1	513	512	514	31	0	
8	0	0	0	0	0	512	513	515	32	0	
9	0	0	0	0	0	511	511	516	32	0	
10	0	0	0	0	0	513	511	519	32	0	
11	0	0	0	0	0	513	511	518	32	0	
12	0	0	0	0	0	513	511	513	31	0	
13	0	0	0	0	0	514	513	506	31	0	
14	0	0	0	0	0	514	508	499	31	0	
15	0	0	0	0	2	512	505	502	32	0	
0	0	0	0	0	0	513	507	500	31	0	
1	0	0	0	0	0	515	510	506	31	0	
2	0	0	0	0	0	516	506	511	31	0	
3	0	0	0	0	0	515	508	512	31	0	
4	0	0	0	0	0	515	512	512	31	0	
5	0	0	0	0	0	515	511	515	32	0	
6	0	0	0	0	0	516	509	513	31	0	
7	0	0	0	0	2	515	510	512	31	0	
8	0	0	0	0	0	516	511	512	32	0	
9	0	0	0	0	0	514	510	513	31	0	
10	0	0	0	0	0	514	510	513	32	0	
11	0	0	0	0	0	509	510	514	32	0	
12	0	0	0	0	0	514	513	511	32	0	
13	0	0	0	0	0	511	508	510	32	0	
14	0	0	0	0	0	513	508	509	31	0	
15	0	0	0	0	3	513	510	513	31	0	
0	0	0	0	0	0	514	508	511	31	0	
1	0	0	0	0	0	514	507	512	31	0	
2	0	0	0	0	0	515	507	510	31	0	
3	0	0	0	0	0	515	509	512	32	0	
4	0	0	0	0	0	517	509	513	31	0	
5	0	0	0	0	0	514	508	513	32	0	
6	0	0	0	0	0	515	511	511	31	0	
7	0	0	0	0	2	515	507	511	31	0	
8	0	0	0	0	0	516	507	507	31	0	
9	0	0	0	0	0	519	511	510	31	0	
10	0	0	0	0	0	518	512	507	31	0	
11	0	0	0	0	0	516	512	513	32	0	
12	0	0	0	0	0	511	512	513	32	0	
13	0	0	0	0	0	513	509	510	32	0	
14	0	0	0	0	0	513	510	511	32	0	
15	0	0	0	0	2	511	510	513	32	0	
0	0	0	0	0	0	509	510	513	32	0	
1	0	0	0	0	0	507	509	509	31	0	
2	0	0	0	0	0	509	508	515	32	0	
3	0	0	0	0	0	512	510	518	32	0	
4	0	0	0	0	0	513	510	512	32	0	
5	0	0	0	0	0	516	512	509	31	0	
6	0	0	0	0	0	515	510	510	31	0	
7	0	0	0	0	2	513	509	511	32	0	
8	0	0	0	0	0	515	508	508	32	0	
9	0	0	0	0	0	518	508	507	31	0	
10	0	0	0	0	0	515	510	509	32	0	
11	0	0	0	0	0	516	508	509	32	0	
12	0	0	0	0	0	515	510	512	32	0	
13	0	0	0	0	0	514	509	514	32	0	
14	0	0	0	0	0	515	509	512	32	0	
15	0	0	0	0	2	514	510	512	31	0	
0	0	0	0	0	0	513	512	512	31	0	
1	0	0	0	0	0	512	510	510	31	0	
2	0	0	0	0	0	513	508	512	31	0	
3	0	0	0	0	0	514	508	509	31	0	
4	0	0	0	0	0	514	508	510	32	0	
5	0	0	0	0	0	514	508	508	32	0	
6	0	0	0	0	0	515	508	508	31	0	
7	0	0	0	0	3	514	506	511	32	0	
8	0	0	0	0	0	515	508	510	32	0	
9	0	0	0	0	0	515	509	515	32	0	
10	0	0	0	0	0	515	510	514	31	0	
11	0	0	0	0	0	514	512	508	31	0	
12	0	0	0	0	0	516	511	509	31	0	
13	0	0	0	0	0	512	515	511	31	0	
14	0	0	0	0	0	511	515	515	32	0	
15	0	0	0	0	2	511	513	510	31	0	
0	0	0	0	0	0	513	511	511	32	0	
1	0	0	0	0	0	513	510	509	32	0	
2	0	0	0	0	0	512	507	511	32	0	
3	0	0	0	0	0	515	505	512	32	0	
4	0	0	0	0	0	515	504	512	32	0	
5	0	0	0	0	0	513	504	511	31	0	
6	0	0	0	0	0	512	506	514	31	0	
7	0	0	0	0	2	514	506	511	31	0	
8	0	0	0	0	0	515	509	512	32	0	
9	0	0	0	0	0	514	508	512	32	0	
10	0	0	0	0	0	515	509	510	31	0	
11	0	0	0	0	0	512	514	515	31	0	
12	0	0	0	0	0	514	513	514	31	0	
13	0	0	0	0	0	514	513	515	32	0	
14	0	0	0	0	0	513	511	510	31	0	
15	0	0	0	0	2	515	509	510	31	0	
0	0	0	0	0	0	516	510	508	31	0	
1	0	0	0	0	0	515	507	507	31	0	
2	0	0	0	0	0	512	508	505	32	0	
3	0	0	0	0	0	513	509	509	31	0	
4	0	0	0	0	0	513	510	513	31	0	
5	0	0	0	0	0	513	507	511	31	0	
6	0	0	0	0	0	518	507	507	31	0	
7	0	0	0	0	1	519	511	505	31	0	
8	0	0	0	0	0	517	512	507	31	0	
9	0	0	0	0	0	516	511	508	31	0	
10	0	0	0	0	0	516	511	509	31	0	
11	0	0	0	0	0	514	508	509	32	0	
12	0	0	0	0	0	511	507	513	32	0	
13	0	0	0	0	0	509	510	516	32	0	
14	0	0	0	0	0	509	508	515	32	0	
15	0	0	0	0	1	510	511	515	32	0	
0	0	0	0	0	0	512	508	513	32	0	
1	0	0	0	0	0	513	509	517	32	0	
2	0	0	0	0	0	515	510	516	32	0	
3	0	0	0	0	0	513	512	514	32	0	
4	0	0	0	0	0	515	509	510	32	0	
5	0	0	0	0	0	515	510	512	32	0	
6	0	0	0	0	0	515	510	513	32	0	
7	0	0	0	0	2	512	510	510	32	0	
8	0	0	0	0	0	516	509	511	31	0	
9	0	0	0	0	0	515	509	510	31	0	
10	0	0	0	0	0	515	510	510	31	0	
11	0	0	0	0	0	515	509	511	31	0	
12	0	0	0	0	0	517	509	511	31	0	
13	0	0	0	0	0	517	510	511	32	0	
14	0	0	0	0	0	516	510	509	31	0	
15	0	0	0	0	2	514	512	510	31	0	
0	0	0	0	0	0	513	513	511	31	0	
1	0	0	0	0	0	513	512	512	32	0	
2	0	0	0	0	0	510	510	512	32	0	
3	0	0	0	0	0	511	510	514	32	0	
4	0	0	0	0	0	512	510	512	32	0	
5	0	0	0	0	0	514	509	511	32	0	
6	0	0	0	0	0	513	508	511	31	0	
7	0	0	0	0	2	516	505	511	32	0	
8	0	0	0	0	0	512	509	513	32	0	
9	0	0	0	0	0	513	507	515	31	0	
10	0	0	0	0	0	515	508	515	31	0	
11	0	0	0	0	0	516	505	515	32	0	
12	0	0	0	0	0	516	507	510	31	0	
13	0	0	0	0	0	513	508	508	32	0	
14	0	0	0	0	0	512	508	510	31	0	
15	0	0	0	0	2	510	509	508	31	0	
0	0	0	0	0	0	513	511	508	31	0	
1	0	0	0	0	0	516	513	510	31	0	
2	0	0	0	0	0	515	509	513	31	0	
3	0	0	0	0	0	513	511	515	31	0	
4	0	0	0	0	0	513	510	514	32	0	
5	0	0	0	0	0	512	510	510	32	0	
6	0	0	0	0	0	512	509	505	32	0	
7	0	0	0	0	2	515	505	497	32	0	
8	0	0	0	0	0	515	508	497	32	0	
9	0	0	0	0	0	516	506	507	32	0	
10	0	0	0	0	0	513	507	511	32	0	
11	0	0	0	0	0	514	507	516	31	0	
12	0	0	0	0	0	514	508	519	31	0	
13	0	0	0	0	0	515	510	519	31	0	
14	0	0	0	0	0	513	510	516	31	0	
15	0	0	0	0	2	512	510	512	31	0	
0	0	0	0	0	0	513	510	507	31	0	
1	0	0	0	0	0	513	510	507	32	0	
2	0	0	0	0	0	514	509	510	32	0	
3	0	0	0	0	0	514	511	515	32	0	
4	0	0	0	0	0	513	511	521	32	0	
5	0	0	0	0	0	512	511	525	32	0	
6	0	0	0	0	0	510	510	524	32	0	
7	0	0	0	0	2	512	510	517	32	0	
8	0	0	0	0	0	516	510	512	31	0	
9	0	0	0	0	0	520	510	503	31	0	
10	0	0	0	0	0	518	509	499	31	0	
11	0	0	0	0	0	517	507	499	31	0	
12	0	0	0	0	0	514	509	503	31	0	
13	0	0	0	0	0	510	509	513	31	0	
14	0	0	0	0	0	511	508	524	31	0	
15	0	0	0	0	2	510	512	527	32	0	
0	0	0	0	0	0	508	511	527	32	0	
1	0	0	0	0	0	511	509	523	32	0	
2	0	0	0	0	0	514	511	511	32	0	
3	0	0	0	0	0	515	510	501	32	0	
4	0	0	0	0	0	513	508	495	31	0	
5	0	0	0	0	0	511	507	496	31	0	
6	0	0	0	0	0	513	509	502	32	0	
7	0	0	0	0	2	518	509	505	32	0	
8	0	0	0	0	0	521	507	498	31	0	
9	0	0	0	0	0	520	512	501	31	0	
10	0	0	0	0	0	519	511	507	31	0	
11	0	0	0	0	0	513	510	519	32	0	
12	0	0	0	0	0	514	512	519	32	0	
13	0	0	0	0	0	510	509	524	32	0	
14	0	0	0	0	0	515	509	518	32	0	
15	0	0	0	0	2	518	509	516	32	0	
0	0	0	0	0	0	515	510	514	32	0	
1	0	0	0	0	0	516	511	508	32	0	
2	0	0	0	0	0	513	511	508	31	0	
3	0	0	0	0	0	513	508	509	31	0	
4	0	0	0	0	0	512	509	510	31	0	
5	0	0	0	0	0	514	509	508	31	0	
6	0	0	0	0	0	513	510	512	31	0	
7	0	0	0	0	2	512	506	519	31	0	
8	0	0	0	0	0	508	507	521	32	0	
9	0	0	0	0	0	510	510	522	32	0	
10	0	0	0	0	0	511	510	514	32	0	
11	0	0	0	0	0	515	508	507	32	0	
12	0	0	0	0	0	518	508	504	32	0	
13	0	0	0	0	0	518	510	505	32	0	
14	0	0	0	0	0	513	509	503	31	0	
15	0	0	0	0	1	515	511	505	31	0	
0	0	0	0	0	0	512	509	504	31	0	
1	0	0	0	0	0	510	507	508	32	0	
2	0	0	0	0	0	510	508	511	32	0	
3	0	0	0	0	0	513	506	513	32	0	
4	0	0	0	0	0	514	508	519	32	0	
5	0	0	0	0	0	514	507	526	32	0	
6	0	0	0	0	0	513	510	530	32	0	
7	0	0	0	0	1	515	513	534	32	0	
8	0	0	0	0	0	516	515	533	32	0	
9	0	0	0	0	0	511	514	525	32	0	
10	0	0	0	0	0	508	510	504	31	0	
11	0	0	0	0	0	512	508	487	30	0	
12	0	0	0	0	0	521	507	472	31	0	
13	0	0	0	0	0	523	507	468	31	0	
14	0	0	0	0	0	517	510	478	31	0	
15	0	0	0	0	1	517	511	489	31	0	
0	0	0	0	0	0	518	514	501	31	0	
1	0	0	0	0	0	521	513	515	31	0	
2	0	0	0	0	0	521	513	521	31	0	
3	0	0	0	0	0	522	514	523	31	0	
4	0	0	0	0	0	517	512	520	32	0	
5	0	0	0	0	0	514	508	518	32	0	
6	0	0	0	0	0	512	508	519	32	0	
7	0	0	0	0	2	512	507	523	32	0	
8	0	0	0	0	0	509	506	522	32	0	
9	0	0	0	0	0	505	505	522	32	0	
10	0	0	0	0	0	509	506	519	32	0	
11	0	0	0	0	0	512	508	513	31	0	
12	0	0	0	0	0	509	506	512	31	0	
13	0	0	0	0	0	509	509	514	31	0	
14	0	0	0	0	0	508	506	514	32	0	
15	0	0	0	0	2	513	506	512	32	0	
0	0	0	0	0	0	517	509	509	32	0	
1	0	0	0	0	0	518	515	503	32	0	
2	0	0	0	0	0	516	517	500	32	0	
3	0	0	0	0	0	518	516	503	32	0	
4	0	0	0	0	0	516	514	508	32	0	
5	0	0	0	0	0	510	513	507	31	0	
6	0	0	0	0	0	508	510	508	31	0	
7	0	0	0	0	2	510	507	509	31	0	
8	0	0	0	0	0	511	506	515	31	0	
9	0	0	0	0	0	510	506	517	31	0	
10	0	0	0	0	0	509	508	521	32	0	
11	0	0	0	0	0	524	507	518	32	0	
12	0	0	0	0	0	524	509	509	32	0	
13	0	0	0	0	0	512	506	516	32	0	
14	0	0	0	0	0	488	501	523	33	0	
15	0	0	0	0	2	502	504	512	32	0	
0	0	0	0	0	0	515	507	504	31	0	
1	0	0	0	0	0	517	511	500	30	0	
2	0	0	0	0	0	518	511	507	30	0	
3	0	0	0	0	0	515	511	513	30	0	
4	0	0	0	0	0	518	512	508	30	0	
5	0	0	0	0	0	516	515	504	31	0	
6	0	0	0	0	0	515	514	504	32	0	
7	0	0	0	0	2	515	511	502	32	0	
8	0	0	0	0	0	519	510	497	32	0	
9	0	0	0	0	0	518	515	506	32	0	
10	0	0	0	0	0	518	511	514	32	0	
11	0	0	0	0	0	516	511	518	32	0	
12	0	0	0	0	0	517	508	518	32	0	
13	0	0	0	0	0	511	507	519	32	0	
14	0	0	0	0	0	508	506	524	32	0	
15	0	0	0	0	2	508	506	519	32	0	
0	0	0	0	0	0	513	509	513	32	0	
1	0	0	0	0	0	521	510	510	31	0	
2	0	0	0	0	0	519	513	511	31	0	
3	0	0	0	0	0	518	513	512	31	0	
4	0	0	0	0	0	519	512	512	31	0	
5	0	0	0	0	0	517	514	511	31	0	
6	0	0	0	0	0	517	513	514	32	0	
7	0	0	0	0	2	516	510	514	31	0	
8	0	0	0	0	0	515	510	512	31	0	
9	0	0	0	0	0	519	508	507	31	0	
10	0	0	0	0	0	514	507	509	31	0	
11	0	0	0	0	0	507	508	516	31	0	
12	0	0	0	0	0	495	505	530	32	0	
13	0	0	0	0	0	504	504	524	32	0	
14	0	0	0	0	0	512	508	518	32	0	
15	0	0	0	0	2	517	506	510	32	0	
0	0	0	0	0	0	521	510	500	31	0	
1	0	0	0	0	0	521	511	496	31	0	
2	0	0	0	0	0	511	511	493	31	0	
3	0	0	0	0	0	511	509	498	31	0	
4	0	0	0	0	0	512	509	503	31	0	
5	0	0	0	0	0	508	508	509	32	0	
6	0	0	0	0	0	508	510	509	32	0	
7	0	0	0	0	2	508	509	518	32	0	
8	0	0	0	0	0	512	507	523	33	0	
9	0	0	0	0	0	521	511	530	32	0	
10	0	0	0	0	0	521	512	519	32	0	
11	0	0	0	0	0	507	510	517	31	0	
12	0	0	0	0	0	511	507	511	31	0	
13	0	0	0	0	0	520	510	504	31	0	
14	0	0	0	0	0	523	508	498	30	0	
15	0	0	0	0	2	520	509	498	30	0	
0	0	0	0	0	0	517	508	500	31	0	
1	0	0	0	0	0	513	505	504	31	0	
2	0	0	0	0	0	513	505	508	32	0	
3	0	0	0	0	0	512	507	510	32	0	
4	0	0	0	0	0	511	510	515	32	0	
5	0	0	0	0	0	509	512	513	32	0	
6	0	0	0	0	0	515	510	514	32	0	
7	0	0	0	0	3	514	512	513	32	0	
8	0	0	0	0	0	513	510	508	32	0	
9	0	0	0	0	0	506	510	516	32	0	
10	0	0	0	0	0	512	511	514	32	0	
11	0	0	0	0	0	515	510	515	32	0	
12	0	0	0	0	0	516	508	514	32	0	
13	0	0	0	0	0	513	509	513	32	0	
14	0	0	0	0	0	515	511	514	32	0	
15	0	0	0	0	1	517	509	513	31	0	
0	0	0	0	0	0	514	511	511	31	0	
1	0	0	0	0	0	512	508	511	31	0	
2	0	0	0	0	0	512	511	511	31	0	
3	0	0	0	0	0	524	512	510	31	0	
4	0	0	0	0	0	524	512	517	31	0	
5	0	0	0	0	0	514	510	516	31	0	
6	0	0	0	0	0	500	507	518	32	0	
7	0	0	0	0	1	506	511	519	32	0	
8	0	0	0	0	0	513	508	510	32	0	
9	0	0	0	0	0	513	508	500	32	0	
10	0	0	0	0	0	516	507	496	32	0	
11	0	0	0	0	0	514	509	499	31	0	
12	0	0	0	0	0	512	509	504	31	0	
13	0	0	0	0	0	512	508	512	31	0	
14	0	0	0	0	0	515	508	515	31	0	
15	0	0	0	0	1	514	505	514	31	0	
0	0	0	0	0	0	512	511	513	32	0	
1	0	0	0	0	0	514	508	510	31	0	
2	0	0	0	0	0	510	508	513	32	0	
3	0	0	0	0	0	509	505	518	32	0	
4	0	0	0	0	0	510	509	516	32	0	
5	0	0	0	0	0	515	510	514	31	0	
6	0	0	0	0	0	519	512	510	32	0	
7	0	0	0	0	2	519	511	510	31	0	
8	0	0	0	0	0	519	512	511	31	0	
9	0	0	0	0	0	515	513	510	31	0	
10	0	0	0	0	0	516	512	510	31	0	
11	0	0	0	0	0	513	512	515	31	0	
12	0	0	0	0	0	513	512	514	32	0	
13	0	0	0	0	0	513	512	513	32	0	
14	0	0	0	0	0	515	511	510	32	0	
15	0	0	0	0	2	515	508	507	32	0	
0	0	0	0	0	0	512	507	510	32	0	
1	0	0	0	0	0	512	504	508	32	0	
2	0	0	0	0	0	511	505	508	32	0	
3	0	0	0	0	0	515	505	508	32	0	
4	0	0	0	0	0	516	508	512	32	0	
5	0	0	0	0	0	515	510	511	32	0	
6	0	0	0	0	0	512	511	514	32	0	
7	0	0	0	0	2	514	510	512	32	0	
8	0	0	0	0	0	515	511	509	31	0	
9	0	0	0	0	0	515	513	508	31	0	
10	0	0	0	0	0	512	512	512	32	0	
11	0	0	0	0	0	511	511	513	32	0	
12	0	0	0	0	0	512	507	512	31	0	
13	0	0	0	0	0	514	507	510	31	0	
14	0	0	0	0	0	510	508	513	31	0	
15	0	0	0	0	2	511	509	512	31	0	
0	0	0	0	0	0	515	511	507	31	0	
1	0	0	0	0	0	515	508	510	31	0	
2	0	0	0	0	0	512	508	513	31	0	
3	0	0	0	0	0	516	509	512	31	0	
4	0	0	0	0	0	515	509	512	31	0	
5	0	0	0	0	0	513	513	513	32	0	
6	0	0	0	0	0	515	509	511	31	0	
7	0	0	0	0	2	518	510	509	32	0	
8	0	0	0	0	0	516	510	509	31	0	
9	0	0	0	0	0	515	511	508	31	0	
10	0	0	0	0	0	515	512	510	31	0	
11	0	0	0	0	0	512	511	513	32	0	
12	0	0	0	0	0	512	513	514	32	0	
13	0	0	0	0	0	510	507	521	32	0	
14	0	0	0	0	0	511	505	519	32	0	
15	0	0	0	0	2	512	508	516	31	0	
0	0	0	0	0	0	516	509	510	32	0	
1	0	0	0	0	0	519	508	507	32	0	
2	0	0	0	0	0	516	508	498	32	0	
3	0	0	0	0	0	516	508	493	31	0	
4	0	0	0	0	0	513	508	500	31	0	
5	0	0	0	0	0	510	505	508	31	0	
6	0	0	0	0	0	513	510	508	31	0	
7	0	0	0	0	2	511	510	513	31	0	
8	0	0	0	0	0	512	511	512	31	0	
9	0	0	0	0	0	513	515	515	31	0	
10	0	0	0	0	0	513	511	515	31	0	
11	0	0	0	0	0	512	511	515	32	0	
12	0	0	0	0	0	512	510	517	32	0	
13	0	0	0	0	0	514	511	515	32	0	
14	0	0	0	0	0	515	511	516	32	0	
15	0	0	0	0	2	516	511	513	31	0	
0	0	0	0	0	0	516	509	514	32	0	
1	0	0	0	0	0	515	508	512	32	0	
2	0	0	0	0	0	516	508	508	31	0	
3	0	0	0	0	0	515	509	509	31	0	
4	0	0	0	0	0	510	506	510	31	0	
5	0	0	0	0	0	512	509	507	31	0	
6	0	0	0	0	0	511	510	509	32	0	
7	0	0	0	0	2	512	508	508	32	0	
8	0	0	0	0	0	512	508	511	32	0	
9	0	0	0	0	0	515	509	510	32	0	
10	0	0	0	0	0	513	510	512	31	0	
11	0	0	0	0	0	515	510	513	32	0	
12	0	0	0	0	0	515	509	512	32	0	
13	0	0	0	0	0	514	511	514	31	0	
14	0	0	0	0	0	515	509	512	31	0	
15	0	0	0	0	2	515	511	512	32	0	
0	0	0	0	0	0	513	511	513	31	0	
1	0	0	0	0	0	513	510	513	32	0	
2	0	0	0	0	0	514	509	511	31	0	
3	0	0	0	0	0	514	507	510	32	0	
4	0	0	0	0	0	512	505	510	32	0	
5	0	0	0	0	0	514	505	508	31	0	
6	0	0	0	0	0	517	508	508	31	0	
7	0	0	0	0	2	518	509	511	31	0	
8	0	0	0	0	0	516	509	508	31	0	
9	0	0	0	0	0	514	511	511	32	0	
10	0	0	0	0	0	511	511	512	32	0	
11	0	0	0	0	0	511	512	513	31	0	
12	0	0	0	0	0	515	513	513	31	0	
13	0	0	0	0	0	513	512	511	31	0	
14	0	0	0	0	0	512	510	511	32	0	
15	0	0	0	0	1	512	508	511	31	0	
0	0	0	0	0	0	513	507	511	32	0	
1	0	0	0	0	0	513	509	512	32	0	
2	0	0	0	0	0	511	508	511	32	0	
3	0	0	0	0	0	510	508	508	31	0	
4	0	0	0	0	0	512	507	512	31	0	
5	0	0	0	0	0	512	508	512	31	0	
6	0	0	0	0	0	517	510	512	31	0	
7	0	0	0	0	1	519	509	508	31	0	
8	0	0	0	0	0	519	508	510	31	0	
9	0	0	0	0	0	516	508	510	32	0	
10	0	0	0	0	0	513	507	511	32	0	
11	0	0	0	0	0	513	511	512	32	0	
12	0	0	0	0	0	509	510	511	32	0	
13	0	0	0	0	0	511	513	512	31	0	
14	0	0	0	0	0	512	515	511	32	0	
15	0	0	0	0	2	512	515	509	31	0	
0	0	0	0	0	0	512	511	508	31	0	
1	0	0	0	0	0	511	508	506	31	0	
2	0	0	0	0	0	516	507	507	31	0	
3	0	0	0	0	0	517	506	508	31	0	
4	0	0	0	0	0	519	505	510	32	0	
5	0	0	0	0	0	519	505	512	32	0	
6	0	0	0	0	0	518	506	512	32	0	
7	0	0	0	0	2	514	508	515	32	0	
8	0	0	0	0	0	511	510	514	31	0	
9	0	0	0	0	0	510	510	511	32	0	
10	0	0	0	0	0	513	509	512	32	0	
11	0	0	0	0	0	514	509	508	32	0	
12	0	0	0	0	0	510	510	509	32	0	
13	0	0	0	0	0	513	511	509	32	0	
14	0	0	0	0	0	513	511	512	32	0	
15	0	0	0	0	2	512	512	514	32	0	
0	0	0	0	0	0	512	513	512	31	0	
1	0	0	0	0	0	515	510	509	32	0	
2	0	0	0	0	0	516	512	510	31	0	
3	0	0	0	0	0	517	508	510	31	0	
4	0	0	0	0	0	514	508	509	31	0	
5	0	0	0	0	0	516	506	512	31	0	
6	0	0	0	0	0	514	508	515	32	0	
7	0	0	0	0	2	517	507	511	32	0	
8	0	0	0	0	0	515	510	510	31	0	
9	0	0	0	0	0	512	512	509	31	0	
10	0	0	0	0	0	511	510	510	31	0	
11	0	0	0	0	0	513	510	511	32	0	
12	0	0	0	0	0	511	507	517	32	0	
13	0	0	0	0	0	513	509	514	32	0	
14	0	0	0	0	0	513	510	510	32	0	
15	0	0	0	0	2	513	511	507	32	0	
0	0	0	0	0	0	515	508	506	32	0	
1	0	0	0	0	0	511	512	510	32	0	
2	0	0	0	0	0	510	511	510	31	0	
3	0	0	0	0	0	512	509	511	31	0	
4	0	0	0	0	0	514	508	512	31	0	
5	0	0	0	0	0	516	507	512	32	0	
6	0	0	0	0	0	515	505	510	31	0	
7	0	0	0	0	2	515	508	512	32	0	
8	0	0	0	0	0	514	509	512	32	0	
9	0	0	0	0	0	516	510	512	31	0	
10	0	0	0	0	0	514	508	513	31	0	
11	0	0	0	0	0	515	508	512	32	0	
12	0	0	0	0	0	512	511	511	32	0	
13	0	0	0	0	0	509	512	511	32	0	
14	0	0	0	0	0	512	508	511	32	0	
15	0	0	0	0	2	512	512	515	31	0	
0	0	0	0	0	0	515	508	512	31	0	
1	0	0	0	0	0	517	512	511	31	0	
2	0	0	0	0	0	515	512	513	32	0	
3	0	0	0	0	0	515	512	508	32	0	
4	0	0	0	0	0	516	508	508	31	0	
5	0	0	0	0	0	515	506	508	31	0	
6	0	0	0	0	0	516	507	509	31	0	
7	0	0	0	0	2	516	507	509	31	0	
8	0	0	0	0	0	514	506	510	31	0	
9	0	0	0	0	0	512	508	514	31	0	
10	0	0	0	0	0	511	508	516	32	0	
11	0	0	0	0	0	514	511	515	32	0	
12	0	0	0	0	0	513	510	513	32	0	
13	0	0	0	0	0	513	513	511	32	0	
14	0	0	0	0	0	511	510	509	31	0	
15	0	0	0	0	2	514	513	508	31	0	
0	0	0	0	0	0	514	512	508	31	0	
1	0	0	0	0	0	514	513	510	31	0	
2	0	0	0	0	0	513	511	511	31	0	
3	0	0	0	0	0	515	510	510	31	0	
4	0	0	0	0	0	514	507	511	31	0	
5	0	0	0	0	0	517	508	512	32	0	
6	0	0	0	0	0	517	506	510	31	0	
7	0	0	0	0	2	513	508	512	32	0	
8	0	0	0	0	0	513	507	514	32	0	
9	0	0	0	0	0	515	508	512	32	0	
10	0	0	0	0	0	516	508	511	32	0	
11	0	0	0	0	0	514	510	511	32	0	
12	0	0	0	0	0	512	512	512	32	0	
13	0	0	0	0	0	513	510	512	31	0	
14	0	0	0	0	0	509	510	510	32	0	
15	0	0	0	0	2	510	509	508	32	0	
0	0	0	0	0	0	511	513	509	32	0	
1	0	0	0	0	0	513	513	513	32	0	
2	0	0	0	0	0	515	512	514	31	0	
3	0	0	0	0	0	515	512	515	32	0	
4	0	0	0	0	0	516	512	511	31	0	
5	0	0	0	0	0	514	509	511	31	0	
6	0	0	0	0	0	514	509	509	31	0	
7	0	0	0	0	1	514	505	511	31	0	
8	0	0	0	0	0	515	506	510	31	0	
9	0	0	0	0	0	513	508	511	32	0	
10	0	0	0	0	0	514	508	510	32	0	
11	0	0	0	0	0	512	506	510	32	0	
12	0	0	0	0	0	515	508	512	31	0	
13	0	0	0	0	0	516	510	510	32	0	
14	0	0	0	0	0	516	511	513	31	0	
15	0	0	0	0	1	514	511	512	32	0	
0	0	0	0	0	0	511	509	512	32	0	
1	0	0	0	0	0	513	510	512	32	0	
2	0	0	0	0	0	512	509	509	31	0	
3	0	0	0	0	0	510	510	508	31	0	
4	0	0	0	0	0	513	510	512	31	0	
5	0	0	0	0	0	514	508	512	31	0	
6	0	0	0	0	0	518	510	512	31	0	
7	0	0	0	0	1	515	510	510	31	0	
8	0	0	0	0	0	514	506	509	31	0	
9	0	0	0	0	0	515	510	510	31	0	
10	0	0	0	0	0	515	509	513	32	0	
11	0	0	0	0	0	514	511	514	32	0	
12	0	0	0	0	0	513	507	514	32	0	
13	0	0	0	0	0	513	507	512	32	0	
14	0	0	0	0	0	515	509	512	32	0	
15	0	0	0	0	2	515	508	512	32	0	
0	0	0	0	0	0	514	509	507	31	0	
1	0	0	0	0	0	515	513	510	31	0	
2	0	0	0	0	0	514	512	509	31	0	
3	0	0	0	0	0	513	512	510	31	0	
4	0	0	0	0	0	511	511	510	31	0	
5	0	0	0	0	0	509	511	511	31	0	
6	0	0	0	0	0	511	509	512	31	0	
7	0	0	0	0	2	513	508	512	32	0	
8	0	0	0	0	0	515	508	512	32	0	
9	0	0	0	0	0	513	509	510	32	0	
10	0	0	0	0	0	513	510	511	32	0	
11	0	0	0	0	0	514	510	511	31	0	
12	0	0	0	0	0	515	507	509	31	0	
13	0	0	0	0	0	515	508	511	32	0	
14	0	0	0	0	0	517	510	510	32	0	
15	0	0	0	0	2	517	510	511	32	0	
0	0	0	0	0	0	513	512	512	32	0	
1	0	0	0	0	0	516	511	509	31	0	
2	0	0	0	0	0	516	512	514	31	0	
3	0	0	0	0	0	515	511	512	31	0	
4	0	0	0	0	0	514	510	509	32	0	
5	0	0	0	0	0	510	510	512	32	0	
6	0	0	0	0	0	511	509	511	32	0	
7	0	0	0	0	2	510	507	512	32	0	
8	0	0	0	0	0	512	506	512	32	0	
9	0	0	0	0	0	513	508	511	31	0	
10	0	0	0	0	0	515	507	510	31	0	
11	0	0	0	0	0	515	508	510	31	0	
12	0	0	0	0	0	514	505	510	31	0	
13	0	0	0	0	0	515	508	510	31	0	
14	0	0	0	0	0	518	509	510	31	0	
15	0	0	0	0	2	516	508	514	32	0	
0	0	0	0	0	0	515	510	512	32	0	
1	0	0	0	0	0	515	510	513	32	0	
2	0	0	0	0	0	513	507	515	32	0	
3	0	0	0	0	0	512	509	515	32	0	
4	0	0	0	0	0	512	512	514	32	0	
5	0	0	0	0	0	510	511	509	31	0	
6	0	0	0	0	0	510	510	508	31	0	
7	0	0	0	0	2	513	508	508	31	0	
8	0	0	0	0	0	512	513	511	31	0	
9	0	0	0	0	0	513	510	508	31	0	
10	0	0	0	0	0	514	508	508	31	0	
11	0	0	0	0	0	516	506	511	31	0	
12	0	0	0	0	0	515	508	512	32	0	
13	0	0	0	0	0	516	508	513	32	0	
14	0	0	0	0	0	515	508	511	32	0	
15	0	0	0	0	2	516	510	513	32	0	
0	0	0	0	0	0	513	510	512	32	0	
1	0	0	0	0	0	515	511	510	31	0	
2	0	0	0	0	0	515	511	511	31	0	
3	0	0	0	0	0	514	511	510	32	0	
4	0	0	0	0	0	512	512	508	31	0	
5	0	0	0	0	0	513	513	513	31	0	
6	0	0	0	0	0	512	506	512	32	0	
7	0	0	0	0	2	512	505	511	32	0	
8	0	0	0	0	0	515	507	511	31	0	
9	0	0	0	0	0	515	508	512	32	0	
10	0	0	0	0	0	516	511	511	32	0	
11	0	0	0	0	0	514	510	510	31	0	
12	0	0	0	0	0	515	510	510	31	0	
13	0	0	0	0	0	515	507	508	31	0	
14	0	0	0	0	0	515	511	510	31	0	
15	0	0	0	0	2	514	509	510	31	0	
0	0	0	0	0	0	511	510	512	31	0	
1	0	0	0	0	0	512	511	513	32	0	
2	0	0	0	0	0	511	511	512	32	0	
3	0	0	0	0	0	511	513	513	32	0	
4	0	0	0	0	0	510	510	513	32	0	
5	0	0	0	0	0	511	510	513	32	0	
6	0	0	0	0	0	512	509	512	32	0	
7	0	0	0	0	2	514	512	510	32	0	
8	0	0	0	0	0	516	512	509	32	0	
9	0	0	0	0	0	518	511	512	31	0	
10	0	0	0	0	0	518	508	511	32	0	
11	0	0	0	0	0	515	505	507	31	0	
12	0	0	0	0	0	514	505	509	31	0	
13	0	0	0	0	0	514	507	511	31	0	
14	0	0	0	0	0	514	508	510	31	0	
15	0	0	0	0	2	512	508	510	31	0	
0	0	0	0	0	0	515	509	512	32	0	
1	0	0	0	0	0	515	510	512	32	0	
2	0	0	0	0	0	513	510	512	32	0	
3	0	0	0	0	0	514	510	511	32	0	
4	0	0	0	0	0	511	511	512	32	0	
5	0	0	0	0	0	512	514	513	32	0	
6	0	0	0	0	0	512	511	513	31	0	
7	0	0	0	0	1	511	510	513	31	0	
8	0	0	0	0	0	513	510	512	32	0	
9	0	0	0	0	0	515	506	511	31	0	
10	0	0	0	0	0	516	509	512	32	0	
11	0	0	0	0	0	516	508	511	32	0	
12	0	0	0	0	0	515	509	514	32	0	
13	0	0	0	0	0	515	508	513	31	0	
14	0	0	0	0	0	518	507	507	31	0	
15	0	0	0	0	1	516	508	510	31	0	
0	0	0	0	0	0	512	509	510	31	0	
1	0	0	0	0	0	512	511	511	31	0	
2	0	0	0	0	0	512	510	511	31	0	
3	0	0	0	0	0	512	510	508	32	0	
4	0	0	0	0	0	516	511	508	32	0	
5	0	0	0	0	0	512	510	512	32	0	
6	0	0	0	0	0	512	511	512	32	0	
7	0	0	0	0	1	512	513	509	32	0	
8	0	0	0	0	0	515	510	510	32	0	
9	0	0	0	0	0	516	511	512	32	0	
10	0	0	0	0	0	519	513	512	32	0	
11	0	0	0	0	0	516	511	511	32	0	
12	0	0	0	0	0	512	508	512	32	0	
13	0	0	0	0	0	513	508	510	31	0	
14	0	0	0	0	0	512	507	507	31	0	
15	0	0	0	0	2	513	507	508	31	0	
0	0	0	0	0	0	513	505	508	31	0	
1	0	0	0	0	0	511	505	514	32	0	
2	0	0	0	0	0	511	510	513	32	0	
3	0	0	0	0	0	511	508	513	32	0	
4	0	0	0	0	0	510	509	512	32	0	
5	0	0	0	0	0	514	508	513	32	0	
6	0	0	0	0	0	511	510	510	32	0	
7	0	0	0	0	2	514	510	511	32	0	
8	0	0	0	0	0	512	508	512	32	0	
9	0	0	0	0	0	513	508	510	31	0	
10	0	0	0	0	0	513	510	512	31	0	
11	0	0	0	0	0	515	510	509	32	0	
12	0	0	0	0	0	516	504	509	32	0	
13	0	0	0	0	0	515	508	513	31	0	
14	0	0	0	0	0	515	511	515	32	0	
15	0	0	0	0	2	516	512	513	32	0	
0	0	0	0	0	0	517	509	510	31	0	
1	0	0	0	0	0	515	509	511	31	0	
2	0	0	0	0	0	513	508	511	31	0	
3	0	0	0	0	0	513	510	510	32	0	
4	0	0	0	0	0	511	510	510	31	0	
5	0	0	0	0	0	513	513	509	31	0	
6	0	0	0	0	0	515	510	510	32	0	
7	0	0	0	0	2	514	509	510	32	0	
8	0	0	0	0	0	513	508	513	32	0	
9	0	0	0	0	0	512	508	513	32	0	
10	0	0	0	0	0	513	510	514	32	0	
11	0	0	0	0	0	516	510	513	32	0	
12	0	0	0	0	0	515	510	512	32	0	
13	0	0	0	0	0	515	510	513	32	0	
14	0	0	0	0	0	515	509	510	32	0	
15	0	0	0	0	2	515	508	508	31	0	
0	0	0	0	0	0	512	507	508	31	0	
1	0	0	0	0	0	514	506	509	31	0	
2	0	0	0	0	0	512	508	511	32	0	
3	0	0	0	0	0	511	508	507	31	0	
4	0	0	0	0	0	512	510	511	32	0	
5	0	0	0	0	0	513	509	513	32	0	
6	0	0	0	0	0	511	510	516	32	0	
7	0	0	0	0	3	512	512	515	32	0	
8	0	0	0	0	0	512	513	514	32	0	
9	0	0	0	0	0	512	512	513	32	0	
10	0	0	0	0	0	513	513	512	32	0	
11	0	0	0	0	0	513	511	511	31	0	
12	0	0	0	0	0	513	508	511	31	0	
13	0	0	0	0	0	515	507	509	32	0	
14	0	0	0	0	0	518	509	509	31	0	
15	0	0	0	0	2	518	509	507	32	0	
0	0	0	0	0	0	517	510	508	31	0	
1	0	0	0	0	0	515	510	508	31	0	
2	0	0	0	0	0	516	509	509	32	0	
3	0	0	0	0	0	515	510	512	32	0	
4	0	0	0	0	0	512	508	513	32	0	
5	0	0	0	0	0	510	511	513	32	0	
6	0	0	0	0	0	512	509	513	32	0	
7	0	0	0	0	2	511	509	513	32	0	
8	0	0	0	0	0	511	513	509	32	0	
9	0	0	0	0	0	513	511	509	31	0	
10	0	0	0	0	0	512	512	510	32	0	
11	0	0	0	0	0	511	513	511	32	0	
12	0	0	0	0	0	513	513	511	32	0	
13	0	0	0	0	0	512	512	513	32	0	
14	0	0	0	0	0	513	509	513	32	0	
15	0	0	0	0	2	512	509	513	32	0	
0	0	0	0	0	0	514	509	512	31	0	
1	0	0	0	0	0	515	507	513	31	0	
2	0	0	0	0	0	515	507	511	32	0	
3	0	0	0	0	0	515	506	510	31	0	
4	0	0	0	0	0	514	506	511	31	0	
5	0	0	0	0	0	516	505	511	31	0	
6	0	0	0	0	0	517	509	510	31	0	
7	0	0	0	0	2	518	511	507	31	0	
8	0	0	0	0	0	514	511	508	32	0	
9	0	0	0	0	0	514	512	510	31	0	
10	0	0	0	0	0	515	510	511	32	0	
11	0	0	0	0	0	511	512	510	31	0	
12	0	0	0	0	0	512	513	509	31	0	
13	0	0	0	0	0	511	509	510	31	0	
14	0	0	0	0	0	514	511	512	32	0	
15	0	0	0	0	3	514	509	511	32	0	
0	0	0	0	0	0	514	508	511	32	0	
1	0	0	0	0	0	514	508	514	32	0	
2	0	0	0	0	0	513	507	513	32	0	
3	0	0	0	0	0	511	508	511	31	0	
4	0	0	0	0	0	515	508	512	32	0	
5	0	0	0	0	0	515	510	510	32	0	
6	0	0	0	0	0	517	511	513	31	0	
7	0	0	0	0	1	515	512	512	32	0	
8	0	0	0	0	0	513	511	511	31	0	
9	0	0	0	0	0	512	512	512	32	0	
10	0	0	0	0	0	515	509	510	32	0	
11	0	0	0	0	0	516	509	512	32	0	
12	0	0	0	0	0	513	506	510	31	0	
13	0	0	0	0	0	512	508	514	31	0	
14	0	0	0	0	0	512	508	511	31	0	
15	0	0	0	0	1	514	509	510	32	0	
0	0	0	0	0	0	514	508	511	32	0	
1	0	0	0	0	0	513	507	508	32	0	
2	0	0	0	0	0	513	509	512	31	0	
3	0	0	0	0	0	513	510	510	31	0	
4	0	0	0	0	0	516	506	509	31	0	
5	0	0	0	0	0	515	509	511	32	0	
6	0	0	0	0	0	517	508	510	32	0	
7	0	0	0	0	2	516	509	511	32	0	
8	0	0	0	0	0	513	511	514	32	0	
9	0	0	0	0	0	514	508	512	32	0	
10	0	0	0	0	0	512	510	509	32	0	
11	0	0	0	0	0	512	510	508	31	0	
12	0	0	0	0	0	514	511	510	31	0	
13	0	0	0	0	0	510	511	511	32	0	
14	0	0	0	0	0	513	511	514	31	0	
15	0	0	0	0	2	515	513	514	32	0	
0	0	0	0	0	0	514	513	515	32	0	
1	0	0	0	0	0	512	512	515	32	0	
2	0	0	0	0	0	515	512	509	31	0	
3	0	0	0	0	0	515	510	512	31	0	
4	0	0	0	0	0	518	508	512	31	0	
5	0	0	0	0	0	519	507	512	32	0	
6	0	0	0	0	0	523	507	508	32	0	
7	0	0	0	0	3	519	508	509	31	0	
8	0	0	0	0	0	512	508	509	31	0	
9	0	0	0	0	0	503	509	511	32	0	
10	0	0	0	0	0	506	512	511	32	0	
11	0	0	0	0	0	509	511	511	32	0	
12	0	0	0	0	0	511	510	511	31	0	
13	0	0	0	0	0	512	509	507	31	0	
14	0	0	0	0	0	519	506	510	31	0	
15	0	0	0	0	2	519	505	505	31	0	
0	0	0	0	0	0	516	503	508	31	0	
1	0	0	0	0	0	509	504	510	31	0	
2	0	0	0	0	0	511	505	515	31	0	
3	0	0	0	0	0	514	508	513	32	0	
4	0	0	0	0	0	516	507	514	32	0	
5	0	0	0	0	0	516	510	517	32	0	
6	0	0	0	0	0	517	514	516	32	0	
7	0	0	0	0	2	529	515	514	32	0	
8	0	0	0	0	0	527	512	507	31	0	
9	0	0	0	0	0	514	512	501	31	0	
10	0	0	0	0	0	497	509	508	31	0	
11	0	0	0	0	0	502	506	508	32	0	
12	0	0	0	0	0	504	508	509	32	0	
13	0	0	0	0	0	507	512	511	32	0	
14	0	0	0	0	0	511	512	513	32	0	
15	0	0	0	0	2	513	511	516	32	0	
0	0	0	0	0	0	511	510	513	31	0	
1	0	0	0	0	0	514	513	511	31	0	
2	0	0	0	0	0	520	513	511	31	0	
3	0	0	0	0	0	521	510	511	31	0	
4	0	0	0	0	0	519	507	510	32	0	
5	0	0	0	0	0	514	504	513	32	0	
6	0	0	0	0	0	515	506	516	32	0	
7	0	0	0	0	2	517	510	515	32	0	
8	0	0	0	0	0	517	509	509	32	0	
9	0	0	0	0	0	518	508	508	31	0	
10	0	0	0	0	0	515	509	510	32	0	
11	0	0	0	0	0	511	513	509	32	0	
12	0	0	0	0	0	511	511	510	32	0	
13	0	0	0	0	0	512	510	509	31	0	
14	0	0	0	0	0	512	510	508	31	0	
15	0	0	0	0	2	515	510	511	32	0	
0	0	0	0	0	0	515	511	511	32	0	
1	0	0	0	0	0	513	508	510	31	0	
2	0	0	0	0	0	510	510	515	31	0	
3	0	0	0	0	0	510	510	515	31	0	
4	0	0	0	0	0	512	511	512	31	0	
5	0	0	0	0	0	515	506	512	31	0	
6	0	0	0	0	0	519	505	507	31	0	
7	0	0	0	0	2	516	508	511	32	0	
8	0	0	0	0	0	515	510	512	32	0	
9	0	0	0	0	0	513	511	510	32	0	
10	0	0	0	0	0	513	513	512	32	0	
11	0	0	0	0	0	513	510	510	31	0	
12	0	0	0	0	0	511	504	512	32	0	
13	0	0	0	0	0	513	504	512	32	0	
14	0	0	0	0	0	514	508	513	32	0	
15	0	0	0	0	2	512	507	510	32	0	
0	0	0	0	0	0	513	509	513	32	0	
1	0	0	0	0	0	514	510	511	32	0	
2	0	0	0	0	0	513	509	512	32	0	
3	0	0	0	0	0	513	512	515	31	0	
4	0	0	0	0	0	512	512	511	31	0	
5	0	0	0	0	0	512	513	512	31	0	
6	0	0	0	0	0	516	510	512	31	0	
7	0	0	0	0	2	515	509	512	31	0	
8	0	0	0	0	0	514	509	512	31	0	
9	0	0	0	0	0	516	508	508	31	0	
10	0	0	0	0	0	517	510	510	32	0	
11	0	0	0	0	0	515	511	511	32	0	
12	0	0	0	0	0	519	513	510	32	0	
13	0	0	0	0	0	516	514	511	31	0	
14	0	0	0	0	0	510	507	510	31	0	
15	0	0	0	0	1	511	505	515	32	0	
0	0	0	0	0	0	514	503	510	32	0	
1	0	0	0	0	0	515	503	510	32	0	
2	0	0	0	0	0	517	508	508	32	0	
3	0	0	0	0	0	515	509	511	31	0	
4	0	0	0	0	0	515	507	510	31	0	
5	0	0	0	0	0	511	508	513	32	0	
6	0	0	0	0	0	517	509	510	31	0	
7	0	0	0	0	1	515	508	512	31	0	
8	0	0	0	0	0	512	510	511	31	0	
9	0	0	0	0	0	511	510	511	31	0	
10	0	0	0	0	0	510	509	510	32	0	
11	0	0	0	0	0	512	513	510	32	0	
12	0	0	0	0	0	511	514	510	32	0	
13	0	0	0	0	0	511	513	512	32	0	
14	0	0	0	0	0	513	513	513	32	0	
15	0	0	0	0	1	512	511	513	31	0	
0	0	0	0	0	0	511	511	511	32	0	
1	0	0	0	0	0	513	508	510	31	0	
2	0	0	0	0	0	515	505	510	31	0	
3	0	0	0	0	0	514	509	511	32	0	
4	0	0	0	0	0	516	509	512	32	0	
5	0	0	0	0	0	515	510	511	32	0	
6	0	0	0	0	0	518	509	507	32	0	
7	0	0	0	0	2	520	512	508	32	0	
8	0	0	0	0	0	519	511	511	31	0	
9	0	0	0	0	0	520	509	510	31	0	
10	0	0	0	0	0	516	506	509	31	0	
11	0	0	0	0	0	512	505	510	31	0	
12	0	0	0	0	0	511	506	512	31	0	
13	0	0	0	0	0	513	513	516	32	0	
14	0	0	0	0	0	512	512	513	32	0	
15	0	0	0	0	2	512	514	514	32	0	
0	0	0	0	0	0	513	512	513	32	0	
1	0	0	0	0	0	515	514	512	32	0	
2	0	0	0	0	0	514	511	512	32	0	
3	0	0	0	0	0	515	509	510	32	0	
4	0	0	0	0	0	516	507	512	31	0	
5	0	0	0	0	0	518	505	509	31	0	
6	0	0	0	0	0	519	503	508	31	0	
7	0	0	0	0	2	519	506	506	31	0	
8	0	0	0	0	0	512	506	504	31	0	
9	0	0	0	0	0	511	509	508	31	0	
10	0	0	0	0	0	510	506	510	31	0	
11	0	0	0	0	0	511	512	511	31	0	
12	0	0	0	0	0	513	508	511	31	0	
13	0	0	0	0	0	511	508	513	32	0	
14	0	0	0	0	0	509	510	514	32	0	
15	0	0	0	0	2	510	511	514	32	0	
0	0	0	0	0	0	509	511	512	32	0	
1	0	0	0	0	0	513	513	513	32	0	
2	0	0	0	0	0	511	511	511	31	0	
3	0	0	0	0	0	512	512	509	31	0	
4	0	0	0	0	0	515	510	509	31	0	
5	0	0	0	0	0	516	510	512	32	0	
6	0	0	0	0	0	515	509	513	32	0	
7	0	0	0	0	2	513	511	511	32	0	
8	0	0	0	0	0	516	511	512	32	0	
9	0	0	0	0	0	517	507	512	32	0	
10	0	0	0	0	0	517	507	511	31	0	
11	0	0	0	0	0	516	509	511	32	0	
12	0	0	0	0	0	517	508	512	32	0	
13	0	0	0	0	0	517	508	510	31	0	
14	0	0	0	0	0	515	509	510	32	0	
15	0	0	0	0	2	516	511	512	32	0	
0	0	0	0	0	0	515	511	513	31	0	
1	0	0	0	0	0	513	510	510	31	0	
2	0	0	0	0	0	510	510	511	31	0	
3	0	0	0	0	0	510	505	511	31	0	
4	0	0	0	0	0	514	507	511	32	0	
5	0	0	0	0	0	516	508	511	32	0	
6	0	0	0	0	0	517	510	510	32	0	
7	0	0	0	0	2	517	508	512	32	0	
8	0	0	0	0	0	514	511	511	32	0	
9	0	0	0	0	0	515	513	512	32	0	
10	0	0	0	0	0	516	512	513	32	0	
11	0	0	0	0	0	513	510	510	32	0	
12	0	0	0	0	0	513	510	510	31	0	
13	0	0	0	0	0	514	508	508	32	0	
14	0	0	0	0	0	512	508	509	32	0	
15	0	0	0	0	2	512	510	510	31	0	
0	0	0	0	0	0	514	512	509	32	0	
1	0	0	0	0	0	510	507	508	32	0	
2	0	0	0	0	0	513	507	512	32	0	
3	0	0	0	0	0	513	507	512	32	0	
4	0	0	0	0	0	511	510	510	31	0	
5	0	0	0	0	0	508	509	508	31	0	
6	0	0	0	0	0	509	511	508	31	0	
7	0	0	0	0	2	512	513	508	31	0	
8	0	0	0	0	0	514	512	508	31	0	
9	0	0	0	0	0	514	508	512	31	0	
10	0	0	0	0	0	513	506	513	32	0	
11	0	0	0	0	0	514	508	511	32	0	
12	0	0	0	0	0	515	509	511	31	0	
13	0	0	0	0	0	517	510	511	32	0	
14	0	0	0	0	0	512	511	512	32	0	
15	0	0	0	0	2	512	513	513	32	0	
0	0	0	0	0	0	514	512	513	32	0	
1	0	0	0	0	0	514	510	513	32	0	
2	0	0	0	0	0	514	510	516	32	0	
3	0	0	0	0	0	512	506	515	32	0	
4	0	0	0	0	0	513	508	511	32	0	
5	0	0	0	0	0	515	510	512	31	0	
6	0	0	0	0	0	513	512	510	31	0	
7	0	0	0	0	2	516	510	510	32	0	
8	0	0	0	0	0	518	510	513	32	0	
9	0	0	0	0	0	516	507	512	32	0	
10	0	0	0	0	0	517	508	512	31	0	
11	0	0	0	0	0	517	509	511	31	0	
12	0	0	0	0	0	518	508	512	31	0	
13	0	0	0	0	0	517	508	512	31	0	
14	0	0	0	0	0	513	508	511	31	0	
15	0	0	0	0	1	515	509	512	31	0	
0	0	0	0	0	0	515	511	512	31	0	
1	0	0	0	0	0	513	510	512	32	0	
2	0	0	0	0	0	510	510	513	32	0	
3	0	0	0	0	0	511	511	514	32	0	
4	0	0	0	0	0	513	509	511	32	0	
5	0	0	0	0	0	515	510	509	31	0	
6	0	0	0	0	0	518	510	510	31	0	
7	0	0	0	0	1	515	507	511	32	0	
8	0	0	0	0	0	516	506	511	32	0	
9	0	0	0	0	0	514	507	508	31	0	
10	0	0	0	0	0	514	506	508	31	0	
11	0	0	0	0	0	511	505	508	31	0	
12	0	0	0	0	0	512	509	512	32	0	
13	0	0	0	0	0	511	511	515	32	0	
14	0	0	0	0	0	512	511	513	31	0	
15	0	0	0	0	1	513	515	510	31	0	
0	0	0	0	0	0	514	510	510	31	0	
1	0	0	0	0	0	515	510	509	32	0	
2	0	0	0	0	0	513	511	511	32	0	
3	0	0	0	0	0	512	510	510	32	0	
4	0	0	0	0	0	511	508	510	31	0	
5	0	0	0	0	0	512	511	512	31	0	
6	0	0	0	0	0	513	510	511	32	0	
7	0	0	0	0	2	511	508	510	31	0	
8	0	0	0	0	0	511	510	510	31	0	
9	0	0	0	0	0	515	510	512	32	0	
10	0	0	0	0	0	518	509	511	32	0	
11	0	0	0	0	0	519	509	512	32	0	
12	0	0	0	0	0	519	509	511	31	0	
13	0	0	0	0	0	517	511	512	31	0	
14	0	0	0	0	0	514	512	511	31	0	
15	0	0	0	0	2	518	512	511	31	0	
0	0	0	0	0	0	515	513	509	31	0	
1	0	0	0	0	0	508	510	510	31	0	
2	0	0	0	0	0	509	507	513	32	0	
3	0	0	0	0	0	512	505	513	32	0	
4	0	0	0	0	0	514	507	512	32	0	
5	0	0	0	0	0	513	509	510	32	0	
6	0	0	0	0	0	513	509	512	32	0	
7	0	0	0	0	2	513	510	512	32	0	
8	0	0	0	0	0	515	509	514	32	0	
9	0	0	0	0	0	513	507	511	31	0	
10	0	0	0	0	0	514	505	508	31	0	
11	0	0	0	0	0	513	511	511	31	0	
12	0	0	0	0	0	512	511	511	32	0	
13	0	0	0	0	0	514	513	509	31	0	
14	0	0	0	0	0	516	509	510	32	0	
15	0	0	0	0	2	515	509	512	32	0	
0	0	0	0	0	0	518	509	515	32	0	
1	0	0	0	0	0	517	509	513	31	0	
2	0	0	0	0	0	515	510	510	31	0	
3	0	0	0	0	0	518	508	508	31	0	
4	0	0	0	0	0	515	509	508	32	0	
5	0	0	0	0	0	514	507	509	31	0	
6	0	0	0	0	0	512	509	513	31	0	
7	0	0	0	0	3	512	510	515	31	0	
8	0	0	0	0	0	511	511	512	31	0	
9	0	0	0	0	0	515	513	507	31	0	
10	0	0	0	0	0	515	511	505	31	0	
11	0	0	0	0	0	511	511	508	31	0	
12	0	0	0	0	0	510	509	512	31	0	
13	0	0	0	0	0	512	507	513	31	0	
14	0	0	0	0	0	515	508	515	31	0	
15	0	0	0	0	2	513	510	512	31	0	
0	0	0	0	0	0	515	509	513	31	0	
1	0	0	0	0	0	518	511	510	32	0	
2	0	0	0	0	0	515	511	508	32	0	
3	0	0	0	0	0	514	510	509	32	0	
4	0	0	0	0	0	512	511	513	32	0	
5	0	0	0	0	0	511	511	512	32	0	
6	0	0	0	0	0	512	511	515	32	0	
7	0	0	0	0	2	513	508	511	31	0	
8	0	0	0	0	0	513	506	511	31	0	
9	0	0	0	0	0	511	505	513	32	0	
10	0	0	0	0	0	513	506	513	32	0	
11	0	0	0	0	0	516	510	510	32	0	
12	0	0	0	0	0	518	508	512	32	0	
13	0	0	0	0	0	518	505	509	32	0	
14	0	0	0	0	0	513	508	508	31	0	
15	0	0	0	0	2	514	510	508	31	0	
0	0	0	0	0	0	512	510	511	31	0	
1	0	0	0	0	0	512	512	510	31	0	
2	0	0	0	0	0	513	510	510	31	0	
3	0	0	0	0	0	512	511	511	31	0	
4	0	0	0	0	0	511	512	511	31	0	
5	0	0	0	0	0	513	510	510	31	0	
6	0	0	0	0	0	514	514	511	32	0	
7	0	0	0	0	2	515	513	512	32	0	
8	0	0	0	0	0	514	515	512	32	0	
9	0	0	0	0	0	516	512	509	31	0	
10	0	0	0	0	0	517	507	508	31	0	
11	0	0	0	0	0	517	503	509	31	0	
12	0	0	0	0	0	516	504	512	32	0	
13	0	0	0	0	0	518	506	512	31	0	
14	0	0	0	0	0	516	507	516	31	0	
15	0	0	0	0	2	514	507	515	31	0	
0	0	0	0	0	0	513	508	512	32	0	
1	0	0	0	0	0	512	509	511	32	0	
2	0	0	0	0	0	515	508	509	31	0	
3	0	0	0	0	0	513	510	509	32	0	
4	0	0	0	0	0	512	509	508	32	0	
5	0	0	0	0	0	514	509	510	31	0	
6	0	0	0	0	0	511	511	510	32	0	
7	0	0	0	0	1	509	510	510	32	0	
8	0	0	0	0	0	512	513	510	31	0	
9	0	0	0	0	0	512	511	510	31	0	
10	0	0	0	0	0	512	512	510	32	0	
11	0	0	0	0	0	514	512	513	32	0	
12	0	0	0	0	0	513	510	514	32	0	
13	0	0	0	0	0	513	506	514	32	0	
14	0	0	0	0	0	515	504	510	32	0	
15	0	0	0	0	1	517	506	511	32	0	
0	0	0	0	0	0	515	506	513	32	0	
1	0	0	0	0	0	518	508	515	32	0	
2	0	0	0	0	0	517	511	513	31	0	
3	0	0	0	0	0	517	512	514	32	0	
4	0	0	0	0	0	517	514	510	31	0	
5	0	0	0	0	0	514	512	505	31	0	
6	0	0	0	0	0	512	510	506	31	0	
7	0	0	0	0	1	513	510	510	31	0	
8	0	0	0	0	0	511	508	511	31	0	
9	0	0	0	0	0	510	508	509	31	0	
10	0	0	0	0	0	512	508	510	31	0	
11	0	0	0	0	0	512	510	511	31	0	
12	0	0	0	0	0	514	509	512	32	0	
13	0	0	0	0	0	512	508	513	31	0	
14	0	0	0	0	0	512	508	515	31	0	
15	0	0	0	0	2	519	508	512	32	0	
0	0	0	0	0	0	518	507	511	31	0	
1	0	0	0	0	0	518	511	515	32	0	
2	0	0	0	0	0	518	512	512	32	0	
3	0	0	0	0	0	514	510	511	31	0	
4	0	0	0	0	0	516	514	511	32	0	
5	0	0	0	0	0	511	508	510	32	0	
6	0	0	0	0	0	511	510	510	31	0	
7	0	0	0	0	2	509	510	511	32	0	
8	0	0	0	0	0	511	509	510	32	0	
9	0	0	0	0	0	513	508	513	32	0	
10	0	0	0	0	0	514	506	511	32	0	
11	0	0	0	0	0	511	505	511	32	0	
12	0	0	0	0	0	515	507	512	32	0	
13	0	0	0	0	0	513	508	510	32	0	
14	0	0	0	0	0	514	513	513	32	0	
15	0	0	0	0	2	514	510	514	32	0	
0	0	0	0	0	0	516	510	514	31	0	
1	0	0	0	0	0	517	511	513	31	0	
2	0	0	0	0	0	519	512	513	32	0	
3	0	0	0	0	0	518	511	510	31	0	
4	0	0	0	0	0	519	509	509	31	0	
5	0	0	0	0	0	511	510	508	31	0	
6	0	0	0	0	0	512	511	510	31	0	
7	0	0	0	0	2	514	509	506	31	0	
8	0	0	0	0	0	513	510	508	32	0	
9	0	0	0	0	0	511	510	512	32	0	
10	0	0	0	0	0	509	507	511	32	0	
11	0	0	0	0	0	511	508	512	31	0	
12	0	0	0	0	0	511	510	513	32	0	
13	0	0	0	0	0	512	510	512	32	0	
14	0	0	0	0	0	512	511	508	31	0	
15	0	0	0	0	2	516	507	509	32	0	
0	0	0	0	0	0	515	505	510	31	0	
1	0	0	0	0	0	515	507	512	32	0	
2	0	0	0	0	0	515	509	512	32	0	
3	0	0	0	0	0	515	509	511	31	0	
4	0	0	0	0	0	515	511	509	31	0	
5	0	0	0	0	0	515	511	508	31	0	
6	0	0	0	0	0	515	509	509	32	0	
7	0	0	0	0	2	515	511	512	32	0	
8	0	0	0	0	0	514	512	512	32	0	
9	0	0	0	0	0	513	511	511	32	0	
