# OpenSignals Text File Format. Version 1
# {"98:D3:71:FE:38:C0": {"position": 0, "device": "bitalino_rev", "device name": "98:D3:71:FE:38:C0", "device connection": "BTH98:D3:71:FE:38:C0", "sampling rate": 1000, "resolution": [4, 1, 1, 1, 1, 10, 10, 10, 10, 6, 6], "firmware version": 1282, "comments": "", "keywords": "", "mode": 0, "sync interval": 2, "date": "2026-6-5", "time": "12:26:48.858", "channels": [1, 2, 3, 4, 5, 6], "sensor": ["RAW", "RAW", "RAW", "RAW", "RAW", "RAW"], "label": ["A1", "A2", "A3", "A4", "A5", "A6"], "column": ["nSeq", "I1", "I2", "O1", "O2", "A1", "A2", "A3", "A4", "A5", "A6"], "special": [{}, {}, {}, {}, {}, {}], "digital IO": [0, 0, 1, 1]}}
# EndOfHeader
0	0	0	0	0	0	503	513	507	32	0	
1	0	0	0	0	0	504	513	508	32	0	
2	0	0	0	0	0	505	509	505	31	0	
3	0	0	0	0	0	505	505	505	31	0	
4	0	0	0	0	0	506	505	504	31	0	
5	0	0	0	0	0	506	508	505	31	0	
6	0	0	0	0	0	507	509	509	31	0	
7	0	0	0	0	2	507	510	508	31	0	
8	0	0	0	0	0	507	514	510	31	0	
9	0	0	0	0	0	506	513	510	31	0	
10	0	0	0	0	0	503	516	510	31	0	
11	0	0	0	0	0	505	518	510	31	0	
12	0	0	0	0	0	505	517	508	31	0	
13	0	0	0	0	0	505	516	509	32	0	
14	0	0	0	0	0	505	515	509	31	0	
15	0	0	0	0	2	505	511	512	32	0	
0	0	0	0	0	0	504	511	513	32	0	
1	0	0	0	0	0	503	510	514	32	0	
2	0	0	0	0	0	504	511	513	32	0	
3	0	0	0	0	0	506	510	511	31	0	
4	0	0	0	0	0	507	506	507	31	0	
5	0	0	0	0	0	508	507	507	31	0	
6	0	0	0	0	0	508	511	505	31	0	
7	0	0	0	0	2	505	511	502	31	0	
8	0	0	0	0	0	507	511	503	31	0	
9	0	0	0	0	0	506	512	505	31	0	
10	0	0	0	0	0	506	513	508	31	0	
11	0	0	0	0	0	505	513	510	31	0	
12	0	0	0	0	0	502	519	508	32	0	
13	0	0	0	0	0	504	519	511	32	0	
14	0	0	0	0	0	502	515	517	32	0	
15	0	0	0	0	2	502	513	515	32	0	
0	0	0	0	0	0	504	514	515	32	0	
1	0	0	0	0	0	505	512	513	31	0	
2	0	0	0	0	0	506	510	509	31	0	
3	0	0	0	0	0	505	507	508	31	0	
4	0	0	0	0	0	505	506	508	31	0	
5	0	0	0	0	0	507	507	507	31	0	
6	0	0	0	0	0	508	507	511	31	0	
7	0	0	0	0	2	504	511	514	31	0	
8	0	0	0	0	0	507	510	513	32	0	
9	0	0	0	0	0	510	512	509	32	0	
10	0	0	0	0	0	508	515	508	32	0	
11	0	0	0	0	0	509	516	502	32	0	
12	0	0	0	0	0	508	518	499	31	0	
13	0	0	0	0	0	505	516	502	31	0	
14	0	0	0	0	0	504	515	505	31	0	
15	0	0	0	0	3	503	516	510	31	0	
0	0	0	0	0	0	502	514	508	31	0	
1	0	0	0	0	0	501	511	513	31	0	
2	0	0	0	0	0	500	511	512	31	0	
3	0	0	0	0	0	503	511	513	31	0	
4	0	0	0	0	0	504	509	511	31	0	
5	0	0	0	0	0	504	505	514	31	0	
6	0	0	0	0	0	508	506	510	31	0	
7	0	0	0	0	1	508	508	509	31	0	
8	0	0	0	0	0	507	512	509	31	0	
9	0	0	0	0	0	505	512	512	31	0	
10	0	0	0	0	0	507	512	506	31	0	
11	0	0	0	0	0	504	515	507	31	0	
12	0	0	0	0	0	505	515	507	32	0	
13	0	0	0	0	0	505	516	510	32	0	
14	0	0	0	0	0	503	514	513	32	0	
15	0	0	0	0	1	502	513	513	31	0	
0	0	0	0	0	0	503	516	512	31	0	
1	0	0	0	0	0	504	511	511	31	0	
2	0	0	0	0	0	504	512	510	31	0	
3	0	0	0	0	0	503	510	510	31	0	
4	0	0	0	0	0	506	507	505	31	0	
5	0	0	0	0	0	505	508	506	31	0	
6	0	0	0	0	0	509	508	508	31	0	
7	0	0	0	0	1	508	510	505	31	0	
8	0	0	0	0	0	506	514	504	31	0	
9	0	0	0	0	0	507	511	506	31	0	
10	0	0	0	0	0	507	514	508	31	0	
11	0	0	0	0	0	507	515	508	31	0	
12	0	0	0	0	0	507	514	511	32	0	
13	0	0	0	0	0	504	518	513	32	0	
14	0	0	0	0	0	506	515	512	31	0	
15	0	0	0	0	2	505	517	511	32	0	
0	0	0	0	0	0	505	513	510	32	0	
1	0	0	0	0	0	505	515	509	32	0	
2	0	0	0	0	0	504	513	511	32	0	
3	0	0	0	0	0	504	510	508	31	0	
4	0	0	0	0	0	501	507	507	32	0	
5	0	0	0	0	0	503	508	508	31	0	
6	0	0	0	0	0	504	508	512	32	0	
7	0	0	0	0	3	505	508	510	32	0	
8	0	0	0	0	0	504	509	509	31	0	
9	0	0	0	0	0	505	511	509	31	0	
10	0	0	0	0	0	506	508	507	31	0	
11	0	0	0	0	0	508	511	504	31	0	
12	0	0	0	0	0	505	511	505	31	0	
13	0	0	0	0	0	504	515	506	31	0	
14	0	0	0	0	0	502	515	512	31	0	
15	0	0	0	0	2	504	513	512	31	0	
0	0	0	0	0	0	504	515	512	31	0	
1	0	0	0	0	0	504	513	515	31	0	
2	0	0	0	0	0	504	513	514	31	0	
3	0	0	0	0	0	503	512	512	32	0	
4	0	0	0	0	0	505	513	509	31	0	
5	0	0	0	0	0	505	512	505	31	0	
6	0	0	0	0	0	505	510	501	31	0	
7	0	0	0	0	2	506	511	503	31	0	
8	0	0	0	0	0	508	508	504	31	0	
9	0	0	0	0	0	508	509	505	31	0	
10	0	0	0	0	0	505	511	506	31	0	
11	0	0	0	0	0	507	511	511	31	0	
12	0	0	0	0	0	505	515	511	31	0	
13	0	0	0	0	0	508	516	511	31	0	
14	0	0	0	0	0	506	518	513	31	0	
15	0	0	0	0	2	503	515	513	32	0	
0	0	0	0	0	0	502	515	512	32	0	
1	0	0	0	0	0	503	513	513	32	0	
2	0	0	0	0	0	503	513	512	32	0	
3	0	0	0	0	0	504	512	513	32	0	
4	0	0	0	0	0	503	511	511	32	0	
5	0	0	0	0	0	504	512	510	31	0	
6	0	0	0	0	0	507	512	511	31	0	
7	0	0	0	0	2	507	510	510	31	0	
8	0	0	0	0	0	507	510	509	31	0	
9	0	0	0	0	0	507	509	511	31	0	
10	0	0	0	0	0	507	509	508	32	0	
11	0	0	0	0	0	509	512	507	31	0	
12	0	0	0	0	0	510	512	503	31	0	
13	0	0	0	0	0	506	513	503	31	0	
14	0	0	0	0	0	505	516	504	30	0	
15	0	0	0	0	3	505	517	510	31	0	
0	0	0	0	0	0	507	516	508	31	0	
1	0	0	0	0	0	505	515	508	31	0	
2	0	0	0	0	0	502	513	507	31	0	
3	0	0	0	0	0	500	511	508	32	0	
4	0	0	0	0	0	502	514	508	32	0	
5	0	0	0	0	0	503	510	511	32	0	
6	0	0	0	0	0	503	510	512	32	0	
7	0	0	0	0	2	505	505	512	32	0	
8	0	0	0	0	0	503	505	508	31	0	
9	0	0	0	0	0	505	507	506	31	0	
10	0	0	0	0	0	504	508	510	31	0	
11	0	0	0	0	0	508	509	509	31	0	
12	0	0	0	0	0	507	510	509	31	0	
13	0	0	0	0	0	507	510	510	31	0	
14	0	0	0	0	0	505	514	512	31	0	
15	0	0	0	0	2	505	514	512	32	0	
0	0	0	0	0	0	506	516	513	32	0	
1	0	0	0	0	0	504	514	513	32	0	
2	0	0	0	0	0	504	514	514	32	0	
3	0	0	0	0	0	504	515	514	32	0	
4	0	0	0	0	0	504	513	511	32	0	
5	0	0	0	0	0	504	514	511	32	0	
6	0	0	0	0	0	504	511	511	31	0	
7	0	0	0	0	2	504	511	510	31	0	
8	0	0	0	0	0	503	510	509	31	0	
9	0	0	0	0	0	502	509	504	31	0	
10	0	0	0	0	0	504	509	503	31	0	
11	0	0	0	0	0	507	509	503	31	0	
12	0	0	0	0	0	507	510	504	31	0	
13	0	0	0	0	0	505	513	507	31	0	
14	0	0	0	0	0	508	512	507	31	0	
15	0	0	0	0	2	505	515	507	31	0	
0	0	0	0	0	0	505	517	508	31	0	
1	0	0	0	0	0	505	516	510	32	0	
2	0	0	0	0	0	504	515	508	32	0	
3	0	0	0	0	0	504	514	508	32	0	
4	0	0	0	0	0	505	512	509	32	0	
5	0	0	0	0	0	504	510	511	32	0	
6	0	0	0	0	0	505	510	511	31	0	
7	0	0	0	0	1	503	511	510	31	0	
8	0	0	0	0	0	504	510	516	31	0	
9	0	0	0	0	0	505	510	515	31	0	
10	0	0	0	0	0	506	510	511	31	0	
11	0	0	0	0	0	507	507	507	31	0	
12	0	0	0	0	0	507	508	507	31	0	
13	0	0	0	0	0	507	511	509	31	0	
14	0	0	0	0	0	506	513	508	31	0	
15	0	0	0	0	1	508	513	506	32	0	
0	0	0	0	0	0	507	515	504	32	0	
1	0	0	0	0	0	505	516	504	32	0	
2	0	0	0	0	0	504	515	506	31	0	
3	0	0	0	0	0	504	514	508	32	0	
4	0	0	0	0	0	502	511	511	32	0	
5	0	0	0	0	0	503	509	513	31	0	
6	0	0	0	0	0	503	510	516	31	0	
7	0	0	0	0	1	505	509	516	31	0	
8	0	0	0	0	0	504	511	516	31	0	
9	0	0	0	0	0	504	509	512	31	0	
10	0	0	0	0	0	505	507	509	31	0	
11	0	0	0	0	0	507	509	507	31	0	
12	0	0	0	0	0	508	511	505	31	0	
13	0	0	0	0	0	505	511	502	31	0	
14	0	0	0	0	0	505	513	505	32	0	
15	0	0	0	0	2	505	514	507	31	0	
0	0	0	0	0	0	508	512	510	31	0	
1	0	0	0	0	0	507	514	507	31	0	
2	0	0	0	0	0	504	516	508	31	0	
3	0	0	0	0	0	505	516	507	31	0	
4	0	0	0	0	0	506	515	507	31	0	
5	0	0	0	0	0	504	516	512	32	0	
6	0	0	0	0	0	505	514	514	32	0	
7	0	0	0	0	2	502	513	515	32	0	
8	0	0	0	0	0	502	510	516	32	0	
9	0	0	0	0	0	503	511	513	32	0	
10	0	0	0	0	0	504	508	515	32	0	
11	0	0	0	0	0	507	507	511	32	0	
12	0	0	0	0	0	506	510	508	31	0	
13	0	0	0	0	0	506	510	505	31	0	
14	0	0	0	0	0	508	511	504	31	0	
15	0	0	0	0	3	505	511	498	31	0	
0	0	0	0	0	0	507	513	498	31	0	
1	0	0	0	0	0	507	515	498	31	0	
2	0	0	0	0	0	506	517	502	31	0	
3	0	0	0	0	0	503	518	505	31	0	
4	0	0	0	0	0	504	516	511	31	0	
5	0	0	0	0	0	502	515	513	31	0	
6	0	0	0	0	0	505	514	514	31	0	
7	0	0	0	0	2	502	511	514	32	0	
8	0	0	0	0	0	502	511	513	32	0	
9	0	0	0	0	0	504	510	513	32	0	
10	0	0	0	0	0	503	505	511	31	0	
11	0	0	0	0	0	504	507	513	31	0	
12	0	0	0	0	0	506	509	511	31	0	
13	0	0	0	0	0	509	511	511	32	0	
14	0	0	0	0	0	507	511	511	31	0	
15	0	0	0	0	2	505	511	504	31	0	
0	0	0	0	0	0	506	511	503	31	0	
1	0	0	0	0	0	506	513	506	31	0	
2	0	0	0	0	0	506	514	509	31	0	
3	0	0	0	0	0	505	515	511	31	0	
4	0	0	0	0	0	504	515	512	32	0	
5	0	0	0	0	0	503	515	510	32	0	
6	0	0	0	0	0	505	514	512	32	0	
7	0	0	0	0	2	504	517	512	32	0	
8	0	0	0	0	0	505	513	510	32	0	
9	0	0	0	0	0	505	512	513	31	0	
10	0	0	0	0	0	505	510	511	31	0	
11	0	0	0	0	0	510	508	511	31	0	
12	0	0	0	0	0	506	508	505	31	0	
13	0	0	0	0	0	505	508	505	31	0	
14	0	0	0	0	0	507	511	505	31	0	
15	0	0	0	0	3	509	512	506	31	0	
0	0	0	0	0	0	507	514	508	32	0	
1	0	0	0	0	0	506	512	508	32	0	
2	0	0	0	0	0	507	512	507	31	0	
3	0	0	0	0	0	504	515	506	31	0	
4	0	0	0	0	0	504	518	509	31	0	
5	0	0	0	0	0	501	513	511	31	0	
6	0	0	0	0	0	502	511	512	31	0	
7	0	0	0	0	3	505	513	512	31	0	
8	0	0	0	0	0	505	513	511	31	0	
9	0	0	0	0	0	500	512	511	31	0	
10	0	0	0	0	0	505	511	510	32	0	
11	0	0	0	0	0	502	507	510	31	0	
12	0	0	0	0	0	503	509	509	31	0	
13	0	0	0	0	0	506	508	509	31	0	
14	0	0	0	0	0	508	508	509	31	0	
15	0	0	0	0	2	508	510	511	31	0	
0	0	0	0	0	0	508	512	512	31	0	
1	0	0	0	0	0	507	512	511	32	0	
2	0	0	0	0	0	505	515	510	31	0	
3	0	0	0	0	0	504	512	506	31	0	
4	0	0	0	0	0	504	513	508	31	0	
5	0	0	0	0	0	504	515	508	31	0	
6	0	0	0	0	0	504	517	505	31	0	
7	0	0	0	0	2	505	515	504	31	0	
8	0	0	0	0	0	504	513	506	31	0	
9	0	0	0	0	0	504	512	505	31	0	
10	0	0	0	0	0	502	510	506	31	0	
11	0	0	0	0	0	502	510	507	31	0	
12	0	0	0	0	0	503	508	508	31	0	
13	0	0	0	0	0	506	506	513	31	0	
14	0	0	0	0	0	508	508	510	31	0	
15	0	0	0	0	2	507	510	509	31	0	
0	0	0	0	0	0	510	512	509	31	0	
1	0	0	0	0	0	508	509	510	31	0	
2	0	0	0	0	0	507	512	508	31	0	
3	0	0	0	0	0	506	512	508	31	0	
4	0	0	0	0	0	505	513	511	31	0	
5	0	0	0	0	0	504	515	513	32	0	
6	0	0	0	0	0	503	514	512	32	0	
7	0	0	0	0	1	505	514	511	32	0	
8	0	0	0	0	0	503	513	508	31	0	
9	0	0	0	0	0	502	514	510	32	0	
10	0	0	0	0	0	500	513	508	31	0	
11	0	0	0	0	0	503	512	510	31	0	
12	0	0	0	0	0	505	513	508	31	0	
13	0	0	0	0	0	505	512	508	31	0	
14	0	0	0	0	0	505	509	508	31	0	
15	0	0	0	0	1	508	508	509	31	0	
0	0	0	0	0	0	510	509	512	31	0	
1	0	0	0	0	0	506	513	511	31	0	
2	0	0	0	0	0	507	514	508	31	0	
3	0	0	0	0	0	507	513	505	31	0	
4	0	0	0	0	0	505	513	510	31	0	
5	0	0	0	0	0	504	513	511	31	0	
6	0	0	0	0	0	504	515	513	31	0	
7	0	0	0	0	1	504	516	515	32	0	
8	0	0	0	0	0	504	515	515	32	0	
9	0	0	0	0	0	505	515	511	32	0	
10	0	0	0	0	0	505	512	506	32	0	
11	0	0	0	0	0	504	510	505	32	0	
12	0	0	0	0	0	504	512	503	31	0	
13	0	0	0	0	0	505	509	502	31	0	
14	0	0	0	0	0	505	509	504	31	0	
15	0	0	0	0	2	505	507	508	31	0	
0	0	0	0	0	0	505	507	510	31	0	
1	0	0	0	0	0	508	511	512	31	0	
2	0	0	0	0	0	508	509	512	32	0	
3	0	0	0	0	0	507	511	515	32	0	
4	0	0	0	0	0	506	512	512	31	0	
5	0	0	0	0	0	505	515	511	31	0	
6	0	0	0	0	0	504	517	513	31	0	
7	0	0	0	0	2	503	517	511	32	0	
8	0	0	0	0	0	502	516	508	31	0	
9	0	0	0	0	0	505	514	506	31	0	
10	0	0	0	0	0	503	513	500	31	0	
11	0	0	0	0	0	503	512	502	31	0	
12	0	0	0	0	0	505	510	503	31	0	
13	0	0	0	0	0	505	511	504	31	0	
14	0	0	0	0	0	504	508	507	31	0	
15	0	0	0	0	2	504	507	511	31	0	
0	0	0	0	0	0	504	508	511	32	0	
1	0	0	0	0	0	504	511	511	32	0	
2	0	0	0	0	0	508	509	513	31	0	
3	0	0	0	0	0	508	510	512	31	0	
4	0	0	0	0	0	504	508	510	31	0	
5	0	0	0	0	0	507	513	507	31	0	
6	0	0	0	0	0	506	512	505	31	0	
7	0	0	0	0	3	505	514	504	31	0	
8	0	0	0	0	0	504	517	505	31	0	
9	0	0	0	0	0	505	516	509	32	0	
10	0	0	0	0	0	502	513	513	32	0	
11	0	0	0	0	0	504	515	515	32	0	
12	0	0	0	0	0	503	514	516	32	0	
13	0	0	0	0	0	505	513	513	32	0	
14	0	0	0	0	0	506	511	512	31	0	
15	0	0	0	0	2	505	511	507	31	0	
0	0	0	0	0	0	507	510	504	31	0	
1	0	0	0	0	0	506	510	503	31	0	
2	0	0	0	0	0	508	511	507	31	0	
3	0	0	0	0	0	508	511	507	31	0	
4	0	0	0	0	0	508	513	507	31	0	
5	0	0	0	0	0	507	511	507	31	0	
6	0	0	0	0	0	507	513	508	31	0	
7	0	0	0	0	2	507	514	508	31	0	
8	0	0	0	0	0	504	514	511	31	0	
9	0	0	0	0	0	504	515	509	32	0	
10	0	0	0	0	0	503	514	512	32	0	
11	0	0	0	0	0	502	513	511	31	0	
12	0	0	0	0	0	502	513	508	31	0	
13	0	0	0	0	0	503	513	512	32	0	
14	0	0	0	0	0	504	511	513	32	0	
15	0	0	0	0	2	504	511	512	32	0	
0	0	0	0	0	0	504	509	511	31	0	
1	0	0	0	0	0	505	505	509	32	0	
2	0	0	0	0	0	506	510	511	32	0	
3	0	0	0	0	0	505	509	511	32	0	
4	0	0	0	0	0	507	512	512	32	0	
5	0	0	0	0	0	506	513	513	31	0	
6	0	0	0	0	0	507	511	512	31	0	
7	0	0	0	0	2	507	512	508	31	0	
8	0	0	0	0	0	504	513	507	31	0	
9	0	0	0	0	0	502	517	505	31	0	
10	0	0	0	0	0	505	515	507	31	0	
11	0	0	0	0	0	503	511	506	31	0	
12	0	0	0	0	0	504	511	508	31	0	
13	0	0	0	0	0	504	513	510	31	0	
14	0	0	0	0	0	505	511	511	32	0	
15	0	0	0	0	3	506	510	509	32	0	
0	0	0	0	0	0	506	510	510	32	0	
1	0	0	0	0	0	506	508	508	32	0	
2	0	0	0	0	0	505	512	503	32	0	
3	0	0	0	0	0	508	513	504	31	0	
4	0	0	0	0	0	507	510	507	31	0	
5	0	0	0	0	0	506	513	506	31	0	
6	0	0	0	0	0	504	513	511	31	0	
7	0	0	0	0	2	505	511	515	32	0	
8	0	0	0	0	0	505	513	510	32	0	
9	0	0	0	0	0	505	517	507	32	0	
10	0	0	0	0	0	505	518	509	32	0	
11	0	0	0	0	0	504	514	513	31	0	
12	0	0	0	0	0	504	517	515	31	0	
13	0	0	0	0	0	506	513	519	31	0	
14	0	0	0	0	0	507	511	519	31	0	
15	0	0	0	0	1	505	512	510	31	0	
0	0	0	0	0	0	505	512	501	31	0	
1	0	0	0	0	0	506	505	496	31	0	
2	0	0	0	0	0	506	505	495	31	0	
3	0	0	0	0	0	505	507	496	31	0	
4	0	0	0	0	0	504	509	503	31	0	
5	0	0	0	0	0	503	508	507	31	0	
6	0	0	0	0	0	504	509	511	31	0	
7	0	0	0	0	1	507	511	513	32	0	
8	0	0	0	0	0	506	511	512	32	0	
9	0	0	0	0	0	506	513	510	32	0	
10	0	0	0	0	0	504	515	513	32	0	
11	0	0	0	0	0	504	516	510	31	0	
12	0	0	0	0	0	505	516	513	31	0	
13	0	0	0	0	0	504	514	512	31	0	
14	0	0	0	0	0	503	515	511	31	0	
15	0	0	0	0	1	503	513	516	32	0	
0	0	0	0	0	0	503	515	513	31	0	
1	0	0	0	0	0	504	511	508	31	0	
2	0	0	0	0	0	504	511	509	32	0	
3	0	0	0	0	0	504	508	509	32	0	
4	0	0	0	0	0	505	510	510	31	0	
5	0	0	0	0	0	507	509	510	31	0	
6	0	0	0	0	0	509	513	512	31	0	
7	0	0	0	0	3	509	511	513	31	0	
8	0	0	0	0	0	507	510	511	31	0	
9	0	0	0	0	0	508	513	509	31	0	
10	0	0	0	0	0	506	516	505	31	0	
11	0	0	0	0	0	503	515	508	31	0	
12	0	0	0	0	0	503	514	508	31	0	
13	0	0	0	0	0	502	512	507	31	0	
14	0	0	0	0	0	501	513	506	31	0	
15	0	0	0	0	2	506	512	511	31	0	
0	0	0	0	0	0	503	511	511	31	0	
1	0	0	0	0	0	504	509	511	31	0	
2	0	0	0	0	0	504	511	513	31	0	
3	0	0	0	0	0	505	510	508	31	0	
4	0	0	0	0	0	507	508	504	31	0	
5	0	0	0	0	0	508	511	506	32	0	
6	0	0	0	0	0	509	511	505	32	0	
7	0	0	0	0	2	506	513	507	32	0	
8	0	0	0	0	0	509	513	509	31	0	
9	0	0	0	0	0	507	513	508	31	0	
10	0	0	0	0	0	507	513	507	31	0	
11	0	0	0	0	0	503	516	507	31	0	
12	0	0	0	0	0	503	513	505	31	0	
13	0	0	0	0	0	504	515	506	31	0	
14	0	0	0	0	0	501	513	511	32	0	
15	0	0	0	0	2	502	515	512	32	0	
0	0	0	0	0	0	500	512	517	32	0	
1	0	0	0	0	0	502	512	518	32	0	
2	0	0	0	0	0	504	507	517	32	0	
3	0	0	0	0	0	505	508	511	31	0	
4	0	0	0	0	0	505	508	506	31	0	
5	0	0	0	0	0	506	509	505	31	0	
6	0	0	0	0	0	508	510	505	31	0	
7	0	0	0	0	2	506	510	507	31	0	
8	0	0	0	0	0	508	511	508	31	0	
9	0	0	0	0	0	506	514	509	31	0	
10	0	0	0	0	0	508	514	508	31	0	
11	0	0	0	0	0	506	515	507	31	0	
12	0	0	0	0	0	503	515	503	31	0	
13	0	0	0	0	0	505	517	504	31	0	
14	0	0	0	0	0	503	513	510	32	0	
15	0	0	0	0	3	500	514	514	32	0	
0	0	0	0	0	0	503	512	516	32	0	
1	0	0	0	0	0	502	513	515	32	0	
2	0	0	0	0	0	505	511	512	32	0	
3	0	0	0	0	0	504	508	514	32	0	
4	0	0	0	0	0	506	507	515	32	0	
5	0	0	0	0	0	508	507	511	32	0	
6	0	0	0	0	0	508	508	513	31	0	
7	0	0	0	0	2	510	510	511	31	0	
8	0	0	0	0	0	508	511	508	31	0	
9	0	0	0	0	0	507	512	503	31	0	
10	0	0	0	0	0	507	514	504	31	0	
11	0	0	0	0	0	503	515	504	31	0	
12	0	0	0	0	0	504	519	509	32	0	
13	0	0	0	0	0	504	515	511	32	0	
14	0	0	0	0	0	502	515	510	31	0	
15	0	0	0	0	2	504	515	508	30	0	
0	0	0	0	0	0	505	512	505	30	0	
1	0	0	0	0	0	504	511	504	30	0	
2	0	0	0	0	0	504	509	499	30	0	
3	0	0	0	0	0	503	508	499	31	0	
4	0	0	0	0	0	504	507	504	32	0	
5	0	0	0	0	0	504	508	508	32	0	
6	0	0	0	0	0	505	508	512	32	0	
7	0	0	0	0	2	507	509	513	32	0	
8	0	0	0	0	0	504	510	512	32	0	
9	0	0	0	0	0	506	510	508	31	0	
10	0	0	0	0	0	511	512	508	31	0	
11	0	0	0	0	0	506	514	505	31	0	
12	0	0	0	0	0	505	515	507	31	0	
13	0	0	0	0	0	503	514	510	32	0	
14	0	0	0	0	0	504	515	513	32	0	
15	0	0	0	0	2	504	516	513	32	0	
0	0	0	0	0	0	500	516	512	32	0	
1	0	0	0	0	0	502	515	516	33	0	
2	0	0	0	0	0	504	512	515	32	0	
3	0	0	0	0	0	505	513	513	32	0	
4	0	0	0	0	0	504	513	514	31	0	
5	0	0	0	0	0	504	512	511	31	0	
6	0	0	0	0	0	505	507	509	30	0	
7	0	0	0	0	2	507	508	507	30	0	
8	0	0	0	0	0	507	508	510	30	0	
9	0	0	0	0	0	508	511	513	31	0	
10	0	0	0	0	0	508	511	511	32	0	
11	0	0	0	0	0	510	512	512	33	0	
12	0	0	0	0	0	507	514	508	33	0	
13	0	0	0	0	0	504	519	508	32	0	
14	0	0	0	0	0	504	517	509	32	0	
15	0	0	0	0	1	504	515	509	31	0	
0	0	0	0	0	0	503	515	508	31	0	
1	0	0	0	0	0	504	513	511	31	0	
2	0	0	0	0	0	505	510	508	31	0	
3	0	0	0	0	0	506	510	504	31	0	
4	0	0	0	0	0	505	509	501	31	0	
5	0	0	0	0	0	505	508	498	31	0	
6	0	0	0	0	0	503	509	504	31	0	
7	0	0	0	0	1	506	511	505	31	0	
8	0	0	0	0	0	507	508	504	31	0	
9	0	0	0	0	0	507	511	508	31	0	
10	0	0	0	0	0	508	511	509	31	0	
11	0	0	0	0	0	507	510	509	31	0	
12	0	0	0	0	0	505	512	511	32	0	
13	0	0	0	0	0	504	513	512	32	0	
14	0	0	0	0	0	504	515	514	32	0	
15	0	0	0	0	1	504	514	516	32	0	
0	0	0	0	0	0	502	517	515	32	0	
1	0	0	0	0	0	502	513	514	32	0	
2	0	0	0	0	0	500	512	516	32	0	
3	0	0	0	0	0	501	511	518	32	0	
4	0	0	0	0	0	505	510	516	31	0	
5	0	0	0	0	0	508	510	516	31	0	
6	0	0	0	0	0	508	509	505	31	0	
7	0	0	0	0	2	505	510	498	32	0	
8	0	0	0	0	0	503	513	499	32	0	
9	0	0	0	0	0	504	514	507	31	0	
10	0	0	0	0	0	507	515	515	31	0	
11	0	0	0	0	0	508	515	518	31	0	
12	0	0	0	0	0	507	515	508	31	0	
13	0	0	0	0	0	505	513	509	31	0	
14	0	0	0	0	0	505	512	517	32	0	
15	0	0	0	0	3	506	512	517	32	0	
0	0	0	0	0	0	504	515	515	32	0	
1	0	0	0	0	0	504	517	504	32	0	
2	0	0	0	0	0	504	516	502	31	0	
3	0	0	0	0	0	505	515	496	29	0	
4	0	0	0	0	0	506	511	493	29	0	
5	0	0	0	0	0	504	505	490	29	0	
6	0	0	0	0	0	504	505	491	31	0	
7	0	0	0	0	3	505	505	497	31	0	
8	0	0	0	0	0	505	505	502	31	0	
9	0	0	0	0	0	504	508	509	31	0	
10	0	0	0	0	0	504	509	512	32	0	
11	0	0	0	0	0	508	509	510	32	0	
12	0	0	0	0	0	507	514	508	31	0	
13	0	0	0	0	0	506	514	512	32	0	
14	0	0	0	0	0	507	512	518	32	0	
15	0	0	0	0	3	508	516	520	32	0	
0	0	0	0	0	0	504	516	518	32	0	
1	0	0	0	0	0	506	516	514	32	0	
2	0	0	0	0	0	503	515	512	32	0	
3	0	0	0	0	0	502	513	515	32	0	
4	0	0	0	0	0	504	513	515	32	0	
5	0	0	0	0	0	504	515	511	32	0	
6	0	0	0	0	0	505	515	508	32	0	
7	0	0	0	0	2	505	510	504	31	0	
8	0	0	0	0	0	505	508	505	31	0	
9	0	0	0	0	0	506	508	508	31	0	
10	0	0	0	0	0	507	506	509	31	0	
11	0	0	0	0	0	508	510	510	31	0	
12	0	0	0	0	0	507	514	514	31	0	
13	0	0	0	0	0	506	511	515	31	0	
14	0	0	0	0	0	504	512	513	31	0	
15	0	0	0	0	2	505	515	515	32	0	
0	0	0	0	0	0	507	513	512	32	0	
1	0	0	0	0	0	505	515	512	32	0	
2	0	0	0	0	0	503	515	510	32	0	
3	0	0	0	0	0	503	514	510	32	0	
4	0	0	0	0	0	503	516	510	32	0	
5	0	0	0	0	0	504	513	508	31	0	
6	0	0	0	0	0	502	511	513	31	0	
7	0	0	0	0	3	502	512	512	31	0	
8	0	0	0	0	0	503	507	509	31	0	
9	0	0	0	0	0	504	505	507	31	0	
10	0	0	0	0	0	508	507	504	31	0	
11	0	0	0	0	0	510	507	504	31	0	
12	0	0	0	0	0	506	511	504	31	0	
13	0	0	0	0	0	508	511	504	32	0	
14	0	0	0	0	0	508	516	505	32	0	
15	0	0	0	0	2	506	517	509	32	0	
0	0	0	0	0	0	507	516	507	31	0	
1	0	0	0	0	0	503	515	506	31	0	
2	0	0	0	0	0	504	516	507	31	0	
3	0	0	0	0	0	504	514	508	31	0	
4	0	0	0	0	0	503	513	512	31	0	
5	0	0	0	0	0	503	512	513	31	0	
6	0	0	0	0	0	501	510	512	31	0	
7	0	0	0	0	2	501	511	514	31	0	
8	0	0	0	0	0	504	508	510	31	0	
9	0	0	0	0	0	505	508	506	31	0	
10	0	0	0	0	0	506	507	504	31	0	
11	0	0	0	0	0	506	508	504	31	0	
12	0	0	0	0	0	508	508	508	31	0	
13	0	0	0	0	0	508	512	508	31	0	
14	0	0	0	0	0	508	510	510	31	0	
15	0	0	0	0	2	507	511	513	31	0	
0	0	0	0	0	0	505	512	514	32	0	
1	0	0	0	0	0	504	515	513	31	0	
2	0	0	0	0	0	505	514	514	32	0	
3	0	0	0	0	0	506	516	514	32	0	
4	0	0	0	0	0	505	517	508	31	0	
5	0	0	0	0	0	503	515	505	31	0	
6	0	0	0	0	0	503	515	503	31	0	
7	0	0	0	0	2	504	511	506	32	0	
8	0	0	0	0	0	505	510	511	32	0	
9	0	0	0	0	0	501	511	511	32	0	
10	0	0	0	0	0	505	510	512	32	0	
11	0	0	0	0	0	508	510	509	32	0	
12	0	0	0	0	0	507	511	509	31	0	
13	0	0	0	0	0	508	509	511	31	0	
14	0	0	0	0	0	505	511	511	31	0	
15	0	0	0	0	1	506	509	507	31	0	
0	0	0	0	0	0	508	509	503	31	0	
1	0	0	0	0	0	504	514	505	31	0	
2	0	0	0	0	0	504	513	510	31	0	
3	0	0	0	0	0	503	515	511	31	0	
4	0	0	0	0	0	503	515	513	32	0	
5	0	0	0	0	0	502	515	513	32	0	
6	0	0	0	0	0	504	514	508	32	0	
7	0	0	0	0	1	504	512	505	32	0	
8	0	0	0	0	0	505	512	507	31	0	
9	0	0	0	0	0	503	510	510	31	0	
10	0	0	0	0	0	503	508	509	31	0	
11	0	0	0	0	0	504	507	508	32	0	
12	0	0	0	0	0	505	508	510	31	0	
13	0	0	0	0	0	508	510	509	32	0	
14	0	0	0	0	0	507	512	509	31	0	
15	0	0	0	0	2	508	512	509	31	0	
0	0	0	0	0	0	508	512	508	31	0	
1	0	0	0	0	0	506	514	508	31	0	
2	0	0	0	0	0	506	514	512	31	0	
3	0	0	0	0	0	504	516	511	31	0	
4	0	0	0	0	0	504	517	512	32	0	
5	0	0	0	0	0	502	518	511	32	0	
6	0	0	0	0	0	502	513	508	32	0	
7	0	0	0	0	2	503	514	508	32	0	
8	0	0	0	0	0	504	512	508	32	0	
9	0	0	0	0	0	505	511	508	31	0	
10	0	0	0	0	0	505	511	514	31	0	
11	0	0	0	0	0	506	509	515	31	0	
12	0	0	0	0	0	508	508	513	31	0	
13	0	0	0	0	0	507	506	507	30	0	
14	0	0	0	0	0	510	512	505	30	0	
15	0	0	0	0	2	507	510	498	30	0	
0	0	0	0	0	0	506	509	497	31	0	
1	0	0	0	0	0	505	511	497	31	0	
2	0	0	0	0	0	505	513	503	31	0	
3	0	0	0	0	0	504	515	510	32	0	
4	0	0	0	0	0	505	516	516	32	0	
5	0	0	0	0	0	504	515	519	32	0	
6	0	0	0	0	0	504	516	516	32	0	
7	0	0	0	0	2	504	517	515	32	0	
8	0	0	0	0	0	507	515	512	32	0	
9	0	0	0	0	0	503	512	510	32	0	
10	0	0	0	0	0	504	510	509	32	0	
11	0	0	0	0	0	504	510	509	32	0	
12	0	0	0	0	0	504	506	508	31	0	
13	0	0	0	0	0	507	507	504	31	0	
14	0	0	0	0	0	507	508	503	31	0	
15	0	0	0	0	2	506	508	508	31	0	
0	0	0	0	0	0	506	510	511	31	0	
1	0	0	0	0	0	508	511	511	31	0	
2	0	0	0	0	0	508	513	510	31	0	
3	0	0	0	0	0	507	513	510	31	0	
4	0	0	0	0	0	507	514	508	31	0	
5	0	0	0	0	0	505	514	512	32	0	
6	0	0	0	0	0	502	515	514	32	0	
7	0	0	0	0	2	502	513	513	32	0	
8	0	0	0	0	0	504	513	509	32	0	
9	0	0	0	0	0	502	515	508	32	0	
10	0	0	0	0	0	504	514	510	31	0	
11	0	0	0	0	0	504	511	509	31	0	
12	0	0	0	0	0	503	508	507	31	0	
13	0	0	0	0	0	502	510	509	31	0	
14	0	0	0	0	0	508	505	507	31	0	
15	0	0	0	0	3	504	507	505	31	0	
0	0	0	0	0	0	504	506	503	31	0	
1	0	0	0	0	0	508	511	504	31	0	
2	0	0	0	0	0	508	511	507	32	0	
3	0	0	0	0	0	507	513	512	32	0	
4	0	0	0	0	0	506	516	512	32	0	
5	0	0	0	0	0	504	518	510	31	0	
6	0	0	0	0	0	505	518	508	31	0	
7	0	0	0	0	2	504	516	506	31	0	
8	0	0	0	0	0	504	514	511	31	0	
9	0	0	0	0	0	502	512	510	31	0	
10	0	0	0	0	0	502	511	511	31	0	
11	0	0	0	0	0	504	508	516	32	0	
12	0	0	0	0	0	504	509	515	32	0	
13	0	0	0	0	0	504	509	516	32	0	
14	0	0	0	0	0	505	508	516	32	0	
15	0	0	0	0	3	506	510	513	32	0	
0	0	0	0	0	0	508	509	512	31	0	
1	0	0	0	0	0	507	512	510	31	0	
2	0	0	0	0	0	507	512	507	31	0	
3	0	0	0	0	0	506	511	508	31	0	
4	0	0	0	0	0	508	513	502	31	0	
5	0	0	0	0	0	509	515	497	31	0	
6	0	0	0	0	0	507	517	492	31	0	
7	0	0	0	0	2	505	517	494	31	0	
8	0	0	0	0	0	502	515	501	31	0	
9	0	0	0	0	0	500	512	510	32	0	
10	0	0	0	0	0	503	510	515	32	0	
11	0	0	0	0	0	504	511	516	32	0	
12	0	0	0	0	0	504	511	518	32	0	
13	0	0	0	0	0	503	511	516	32	0	
14	0	0	0	0	0	505	510	517	31	0	
15	0	0	0	0	3	507	508	511	31	0	
0	0	0	0	0	0	508	508	507	31	0	
1	0	0	0	0	0	507	507	505	31	0	
2	0	0	0	0	0	507	508	503	31	0	
3	0	0	0	0	0	503	510	508	31	0	
4	0	0	0	0	0	503	514	512	31	0	
5	0	0	0	0	0	504	515	513	31	0	
6	0	0	0	0	0	504	516	513	31	0	
7	0	0	0	0	1	504	515	512	31	0	
8	0	0	0	0	0	504	515	510	32	0	
9	0	0	0	0	0	503	516	505	32	0	
10	0	0	0	0	0	504	513	511	32	0	
11	0	0	0	0	0	505	514	510	32	0	
12	0	0	0	0	0	504	514	513	32	0	
13	0	0	0	0	0	505	510	519	32	0	
14	0	0	0	0	0	504	508	524	32	0	
15	0	0	0	0	1	505	508	524	32	0	
0	0	0	0	0	0	508	509	514	31	0	
1	0	0	0	0	0	509	509	508	31	0	
2	0	0	0	0	0	509	513	498	31	0	
3	0	0	0	0	0	508	515	499	31	0	
4	0	0	0	0	0	504	511	496	31	0	
5	0	0	0	0	0	505	511	503	31	0	
6	0	0	0	0	0	502	514	505	31	0	
7	0	0	0	0	1	503	515	507	31	0	
8	0	0	0	0	0	504	515	508	31	0	
9	0	0	0	0	0	500	514	508	31	0	
10	0	0	0	0	0	502	516	509	31	0	
11	0	0	0	0	0	504	515	509	31	0	
12	0	0	0	0	0	505	515	510	32	0	
13	0	0	0	0	0	504	515	513	32	0	
14	0	0	0	0	0	505	511	514	32	0	
15	0	0	0	0	3	505	508	516	32	0	
0	0	0	0	0	0	512	508	518	30	0	
1	0	0	0	0	0	514	507	502	30	0	
2	0	0	0	0	0	516	507	487	29	0	
3	0	0	0	0	0	508	510	485	29	0	
4	0	0	0	0	0	501	511	495	31	0	
5	0	0	0	0	0	504	512	505	32	0	
6	0	0	0	0	0	503	512	516	32	0	
7	0	0	0	0	2	502	514	520	32	0	
8	0	0	0	0	0	503	516	522	31	0	
9	0	0	0	0	0	503	516	513	32	0	
10	0	0	0	0	0	502	514	512	32	0	
11	0	0	0	0	0	503	513	517	33	0	
12	0	0	0	0	0	501	515	524	33	0	
13	0	0	0	0	0	503	514	524	32	0	
14	0	0	0	0	0	502	512	515	32	0	
15	0	0	0	0	3	505	509	504	31	0	
0	0	0	0	0	0	504	506	490	30	0	
1	0	0	0	0	0	504	507	492	31	0	
2	0	0	0	0	0	506	507	500	32	0	
3	0	0	0	0	0	511	510	512	32	0	
4	0	0	0	0	0	512	511	526	32	0	
5	0	0	0	0	0	508	511	530	31	0	
6	0	0	0	0	0	505	514	524	31	0	
7	0	0	0	0	2	511	515	499	31	0	
8	0	0	0	0	0	508	516	491	31	0	
9	0	0	0	0	0	505	515	493	31	0	
10	0	0	0	0	0	501	515	502	31	0	
11	0	0	0	0	0	500	512	511	31	0	
12	0	0	0	0	0	504	513	511	32	0	
13	0	0	0	0	0	504	511	504	32	0	
14	0	0	0	0	0	505	514	498	31	0	
15	0	0	0	0	3	505	517	510	31	0	
0	0	0	0	0	0	505	516	514	31	0	
1	0	0	0	0	0	504	512	506	30	0	
2	0	0	0	0	0	505	509	503	28	0	
3	0	0	0	0	0	506	504	502	29	0	
4	0	0	0	0	0	507	503	499	30	0	
5	0	0	0	0	0	507	505	512	32	0	
6	0	0	0	0	0	506	511	515	33	0	
7	0	0	0	0	3	505	513	522	32	0	
8	0	0	0	0	0	507	513	524	32	0	
9	0	0	0	0	0	505	515	514	33	0	
10	0	0	0	0	0	507	515	520	33	0	
11	0	0	0	0	0	503	516	535	34	0	
12	0	0	0	0	0	497	513	550	36	0	
13	0	0	0	0	0	495	511	560	37	0	
14	0	0	0	0	0	501	512	563	36	0	
15	0	0	0	0	2	505	517	548	32	0	
0	0	0	0	0	0	512	519	510	29	0	
1	0	0	0	0	0	515	513	470	27	0	
2	0	0	0	0	0	511	512	438	25	0	
3	0	0	0	0	0	508	507	432	25	0	
4	0	0	0	0	0	510	503	432	27	0	
5	0	0	0	0	0	507	504	440	29	0	
6	0	0	0	0	0	507	509	468	31	0	
7	0	0	0	0	2	505	512	491	31	0	
8	0	0	0	0	0	502	511	508	31	0	
9	0	0	0	0	0	502	513	519	32	0	
10	0	0	0	0	0	504	512	532	34	0	
11	0	0	0	0	0	499	515	541	36	0	
12	0	0	0	0	0	498	517	550	35	0	
13	0	0	0	0	0	502	517	546	33	0	
14	0	0	0	0	0	502	513	527	32	0	
15	0	0	0	0	2	502	513	515	31	0	
0	0	0	0	0	0	504	511	501	31	0	
1	0	0	0	0	0	506	507	500	32	0	
2	0	0	0	0	0	504	507	516	33	0	
3	0	0	0	0	0	505	515	529	32	0	
4	0	0	0	0	0	508	518	530	30	0	
5	0	0	0	0	0	509	511	524	31	0	
6	0	0	0	0	0	508	505	514	32	0	
7	0	0	0	0	2	507	510	511	32	0	
8	0	0	0	0	0	505	510	512	31	0	
9	0	0	0	0	0	507	514	519	29	0	
10	0	0	0	0	0	507	513	497	28	0	
11	0	0	0	0	0	508	515	477	28	0	
12	0	0	0	0	0	508	512	474	28	0	
13	0	0	0	0	0	507	513	487	30	0	
14	0	0	0	0	0	504	516	499	33	0	
15	0	0	0	0	2	504	518	502	34	0	
0	0	0	0	0	0	501	516	505	34	0	
1	0	0	0	0	0	502	518	526	35	0	
2	0	0	0	0	0	505	513	548	35	0	
3	0	0	0	0	0	507	509	572	35	0	
4	0	0	0	0	0	509	508	561	34	0	
5	0	0	0	0	0	508	510	540	32	0	
6	0	0	0	0	0	509	511	522	30	0	
7	0	0	0	0	1	511	509	504	27	0	
8	0	0	0	0	0	508	509	469	25	0	
9	0	0	0	0	0	503	508	448	26	0	
10	0	0	0	0	0	504	509	448	28	0	
11	0	0	0	0	0	502	511	455	30	0	
12	0	0	0	0	0	504	515	476	32	0	
13	0	0	0	0	0	504	519	504	34	0	
14	0	0	0	0	0	501	515	509	33	0	
15	0	0	0	0	1	502	515	514	33	0	
0	0	0	0	0	0	504	515	509	32	0	
1	0	0	0	0	0	505	509	504	31	0	
2	0	0	0	0	0	505	508	516	31	0	
3	0	0	0	0	0	505	507	539	31	0	
4	0	0	0	0	0	501	508	543	32	0	
5	0	0	0	0	0	501	512	551	33	0	
6	0	0	0	0	0	506	513	535	34	0	
7	0	0	0	0	1	506	513	512	33	0	
8	0	0	0	0	0	508	515	486	31	0	
9	0	0	0	0	0	508	514	487	30	0	
10	0	0	0	0	0	503	508	490	29	0	
11	0	0	0	0	0	506	514	499	30	0	
12	0	0	0	0	0	508	517	508	31	0	
13	0	0	0	0	0	511	519	505	31	0	
14	0	0	0	0	0	506	516	495	31	0	
15	0	0	0	0	3	505	515	499	31	0	
0	0	0	0	0	0	505	511	510	32	0	
1	0	0	0	0	0	500	511	523	32	0	
2	0	0	0	0	0	499	507	548	33	0	
3	0	0	0	0	0	504	506	550	33	0	
4	0	0	0	0	0	505	504	542	32	0	
5	0	0	0	0	0	508	509	519	31	0	
6	0	0	0	0	0	508	511	494	31	0	
7	0	0	0	0	2	504	511	483	31	0	
8	0	0	0	0	0	507	514	502	31	0	
9	0	0	0	0	0	507	516	527	32	0	
10	0	0	0	0	0	508	511	537	32	0	
11	0	0	0	0	0	506	514	522	32	0	
12	0	0	0	0	0	507	517	486	32	0	
13	0	0	0	0	0	511	516	463	31	0	
14	0	0	0	0	0	507	513	459	31	0	
15	0	0	0	0	2	499	516	476	31	0	
0	0	0	0	0	0	499	511	502	30	0	
1	0	0	0	0	0	500	510	519	30	0	
2	0	0	0	0	0	499	508	539	31	0	
3	0	0	0	0	0	502	511	553	33	0	
4	0	0	0	0	0	504	513	546	34	0	
5	0	0	0	0	0	505	512	532	35	0	
6	0	0	0	0	0	507	513	519	33	0	
7	0	0	0	0	2	508	509	503	29	0	
8	0	0	0	0	0	508	503	507	26	0	
9	0	0	0	0	0	510	502	504	25	0	
10	0	0	0	0	0	510	507	472	27	0	
11	0	0	0	0	0	508	513	467	29	0	
12	0	0	0	0	0	505	515	471	31	0	
13	0	0	0	0	0	503	517	487	32	0	
14	0	0	0	0	0	502	516	494	32	0	
15	0	0	0	0	2	504	516	513	32	0	
0	0	0	0	0	0	504	514	525	33	0	
1	0	0	0	0	0	503	513	526	33	0	
2	0	0	0	0	0	501	510	529	34	0	
3	0	0	0	0	0	502	509	531	34	0	
4	0	0	0	0	0	503	508	530	33	0	
5	0	0	0	0	0	505	509	524	32	0	
6	0	0	0	0	0	509	511	513	31	0	
7	0	0	0	0	2	509	513	495	29	0	
8	0	0	0	0	0	508	512	487	28	0	
9	0	0	0	0	0	508	511	492	30	0	
10	0	0	0	0	0	507	512	504	31	0	
11	0	0	0	0	0	508	512	510	31	0	
12	0	0	0	0	0	503	513	511	32	0	
13	0	0	0	0	0	503	514	511	32	0	
14	0	0	0	0	0	504	516	512	32	0	
15	0	0	0	0	3	504	515	514	32	0	
0	0	0	0	0	0	502	513	514	32	0	
1	0	0	0	0	0	502	515	515	33	0	
2	0	0	0	0	0	501	514	513	33	0	
3	0	0	0	0	0	503	513	517	33	0	
4	0	0	0	0	0	504	511	522	33	0	
5	0	0	0	0	0	504	510	520	32	0	
6	0	0	0	0	0	504	505	519	31	0	
7	0	0	0	0	3	506	505	517	29	0	
8	0	0	0	0	0	508	506	515	29	0	
9	0	0	0	0	0	510	507	515	29	0	
10	0	0	0	0	0	510	512	512	30	0	
11	0	0	0	0	0	508	513	488	30	0	
12	0	0	0	0	0	512	511	472	30	0	
13	0	0	0	0	0	511	511	470	31	0	
14	0	0	0	0	0	506	512	488	31	0	
15	0	0	0	0	2	500	512	505	31	0	
0	0	0	0	0	0	500	514	516	32	0	
1	0	0	0	0	0	500	514	524	32	0	
2	0	0	0	0	0	503	516	518	33	0	
3	0	0	0	0	0	500	516	517	32	0	
4	0	0	0	0	0	502	514	519	32	0	
5	0	0	0	0	0	503	511	520	32	0	
6	0	0	0	0	0	505	512	514	32	0	
7	0	0	0	0	2	507	509	508	31	0	
8	0	0	0	0	0	504	510	508	31	0	
9	0	0	0	0	0	505	512	506	31	0	
10	0	0	0	0	0	507	513	507	32	0	
11	0	0	0	0	0	508	514	514	32	0	
12	0	0	0	0	0	507	512	514	32	0	
13	0	0	0	0	0	508	513	508	31	0	
14	0	0	0	0	0	507	512	503	31	0	
15	0	0	0	0	3	508	515	512	31	0	
0	0	0	0	0	0	504	516	517	32	0	
1	0	0	0	0	0	502	515	515	32	0	
2	0	0	0	0	0	503	513	519	32	0	
3	0	0	0	0	0	504	509	513	31	0	
4	0	0	0	0	0	504	507	502	30	0	
5	0	0	0	0	0	507	506	503	30	0	
6	0	0	0	0	0	508	510	507	31	0	
7	0	0	0	0	1	506	509	499	30	0	
8	0	0	0	0	0	505	511	492	31	0	
9	0	0	0	0	0	505	512	486	31	0	
10	0	0	0	0	0	505	510	492	32	0	
11	0	0	0	0	0	504	512	507	32	0	
12	0	0	0	0	0	507	513	514	32	0	
13	0	0	0	0	0	508	512	515	32	0	
14	0	0	0	0	0	504	513	515	32	0	
15	0	0	0	0	1	505	516	519	32	0	
0	0	0	0	0	0	503	515	523	32	0	
1	0	0	0	0	0	503	516	526	32	0	
2	0	0	0	0	0	504	516	524	32	0	
3	0	0	0	0	0	504	515	517	32	0	
4	0	0	0	0	0	504	513	515	32	0	
5	0	0	0	0	0	504	515	522	32	0	
6	0	0	0	0	0	504	515	519	31	0	
7	0	0	0	0	3	503	508	495	30	0	
8	0	0	0	0	0	503	505	484	30	0	
9	0	0	0	0	0	507	505	489	30	0	
10	0	0	0	0	0	506	507	496	31	0	
11	0	0	0	0	0	508	508	510	31	0	
12	0	0	0	0	0	507	508	506	30	0	
13	0	0	0	0	0	507	510	502	30	0	
14	0	0	0	0	0	507	513	501	30	0	
15	0	0	0	0	2	507	511	504	31	0	
0	0	0	0	0	0	504	512	512	31	0	
1	0	0	0	0	0	506	515	512	32	0	
2	0	0	0	0	0	504	515	511	32	0	
3	0	0	0	0	0	503	513	515	32	0	
4	0	0	0	0	0	505	513	514	33	0	
5	0	0	0	0	0	502	512	511	32	0	
6	0	0	0	0	0	507	512	514	31	0	
7	0	0	0	0	3	507	513	515	31	0	
8	0	0	0	0	0	508	511	508	31	0	
9	0	0	0	0	0	506	510	505	31	0	
10	0	0	0	0	0	505	509	504	32	0	
11	0	0	0	0	0	505	508	506	32	0	
12	0	0	0	0	0	505	511	507	32	0	
13	0	0	0	0	0	504	508	512	32	0	
14	0	0	0	0	0	501	510	519	32	0	
15	0	0	0	0	2	504	511	516	31	0	
0	0	0	0	0	0	504	514	512	32	0	
1	0	0	0	0	0	502	516	515	32	0	
2	0	0	0	0	0	501	515	513	32	0	
3	0	0	0	0	0	504	515	515	32	0	
4	0	0	0	0	0	505	515	518	31	0	
5	0	0	0	0	0	508	515	515	31	0	
6	0	0	0	0	0	505	515	513	31	0	
7	0	0	0	0	2	507	513	507	32	0	
8	0	0	0	0	0	507	513	505	32	0	
9	0	0	0	0	0	507	511	504	32	0	
10	0	0	0	0	0	508	510	503	31	0	
11	0	0	0	0	0	508	509	502	31	0	
12	0	0	0	0	0	507	511	508	30	0	
13	0	0	0	0	0	508	510	515	30	0	
14	0	0	0	0	0	507	509	519	30	0	
15	0	0	0	0	2	508	512	500	30	0	
0	0	0	0	0	0	504	512	487	30	0	
1	0	0	0	0	0	501	512	496	31	0	
2	0	0	0	0	0	505	516	502	32	0	
3	0	0	0	0	0	503	514	504	32	0	
4	0	0	0	0	0	503	515	510	32	0	
5	0	0	0	0	0	502	513	512	31	0	
6	0	0	0	0	0	502	513	511	32	0	
7	0	0	0	0	2	504	512	511	32	0	
8	0	0	0	0	0	505	511	513	32	0	
9	0	0	0	0	0	505	509	511	32	0	
10	0	0	0	0	0	506	505	512	32	0	
11	0	0	0	0	0	507	508	511	32	0	
12	0	0	0	0	0	508	508	511	31	0	
13	0	0	0	0	0	507	513	510	31	0	
14	0	0	0	0	0	509	512	508	31	0	
15	0	0	0	0	3	506	515	509	31	0	
0	0	0	0	0	0	506	512	505	31	0	
1	0	0	0	0	0	506	513	510	31	0	
2	0	0	0	0	0	505	513	510	31	0	
3	0	0	0	0	0	504	512	508	32	0	
4	0	0	0	0	0	503	511	507	32	0	
5	0	0	0	0	0	503	515	508	32	0	
6	0	0	0	0	0	504	515	510	32	0	
7	0	0	0	0	2	502	515	511	31	0	
8	0	0	0	0	0	503	511	511	31	0	
9	0	0	0	0	0	503	510	513	31	0	
10	0	0	0	0	0	504	512	515	31	0	
11	0	0	0	0	0	506	508	515	31	0	
12	0	0	0	0	0	507	511	511	31	0	
13	0	0	0	0	0	506	510	505	31	0	
14	0	0	0	0	0	505	510	508	31	0	
15	0	0	0	0	2	505	512	510	31	0	
0	0	0	0	0	0	505	513	507	31	0	
1	0	0	0	0	0	508	512	504	31	0	
2	0	0	0	0	0	507	514	509	31	0	
3	0	0	0	0	0	505	514	511	31	0	
4	0	0	0	0	0	503	516	507	32	0	
5	0	0	0	0	0	500	515	508	32	0	
6	0	0	0	0	0	504	514	508	31	0	
7	0	0	0	0	2	504	511	511	31	0	
8	0	0	0	0	0	505	511	511	31	0	
9	0	0	0	0	0	500	510	509	31	0	
10	0	0	0	0	0	506	508	508	31	0	
11	0	0	0	0	0	506	508	506	32	0	
12	0	0	0	0	0	505	509	508	32	0	
13	0	0	0	0	0	505	509	508	32	0	
14	0	0	0	0	0	508	512	507	31	0	
15	0	0	0	0	1	507	512	506	31	0	
0	0	0	0	0	0	507	511	507	31	0	
1	0	0	0	0	0	508	510	506	31	0	
2	0	0	0	0	0	505	515	511	32	0	
3	0	0	0	0	0	505	515	511	32	0	
4	0	0	0	0	0	502	517	512	31	0	
5	0	0	0	0	0	503	516	511	32	0	
6	0	0	0	0	0	504	515	509	32	0	
7	0	0	0	0	1	502	514	511	32	0	
8	0	0	0	0	0	502	513	509	32	0	
9	0	0	0	0	0	502	512	510	32	0	
10	0	0	0	0	0	505	510	510	32	0	
11	0	0	0	0	0	505	511	509	31	0	
12	0	0	0	0	0	508	508	512	31	0	
13	0	0	0	0	0	507	507	510	31	0	
14	0	0	0	0	0	506	509	510	31	0	
15	0	0	0	0	1	507	508	506	31	0	
0	0	0	0	0	0	507	510	505	31	0	
1	0	0	0	0	0	507	512	508	31	0	
2	0	0	0	0	0	508	510	510	31	0	
3	0	0	0	0	0	507	514	508	31	0	
4	0	0	0	0	0	507	515	507	31	0	
5	0	0	0	0	0	507	515	512	31	0	
6	0	0	0	0	0	504	515	509	32	0	
7	0	0	0	0	2	504	516	511	32	0	
8	0	0	0	0	0	502	515	507	31	0	
9	0	0	0	0	0	504	513	507	32	0	
10	0	0	0	0	0	503	515	506	31	0	
11	0	0	0	0	0	504	514	505	31	0	
12	0	0	0	0	0	505	508	506	31	0	
13	0	0	0	0	0	507	508	507	32	0	
14	0	0	0	0	0	507	504	512	32	0	
15	0	0	0	0	2	505	511	515	31	0	
0	0	0	0	0	0	505	512	515	31	0	
1	0	0	0	0	0	507	516	513	31	0	
2	0	0	0	0	0	505	512	509	31	0	
3	0	0	0	0	0	506	512	510	31	0	
4	0	0	0	0	0	505	514	508	31	0	
5	0	0	0	0	0	506	512	508	31	0	
6	0	0	0	0	0	502	513	510	31	0	
7	0	0	0	0	2	502	513	512	31	0	
8	0	0	0	0	0	503	513	510	31	0	
9	0	0	0	0	0	505	512	508	32	0	
10	0	0	0	0	0	505	512	510	31	0	
11	0	0	0	0	0	506	512	510	31	0	
12	0	0	0	0	0	504	511	510	31	0	
13	0	0	0	0	0	506	509	509	31	0	
14	0	0	0	0	0	504	509	505	31	0	
15	0	0	0	0	2	505	509	506	31	0	
0	0	0	0	0	0	508	510	508	31	0	
1	0	0	0	0	0	506	513	509	31	0	
2	0	0	0	0	0	507	512	506	31	0	
3	0	0	0	0	0	508	514	508	31	0	
4	0	0	0	0	0	505	513	509	31	0	
5	0	0	0	0	0	505	515	511	31	0	
6	0	0	0	0	0	504	512	510	31	0	
7	0	0	0	0	2	503	514	511	31	0	
8	0	0	0	0	0	502	514	510	31	0	
9	0	0	0	0	0	504	513	510	32	0	
10	0	0	0	0	0	502	511	511	32	0	
11	0	0	0	0	0	504	510	508	32	0	
12	0	0	0	0	0	504	509	508	31	0	
13	0	0	0	0	0	506	512	507	31	0	
14	0	0	0	0	0	507	510	505	31	0	
15	0	0	0	0	3	510	510	506	31	0	
0	0	0	0	0	0	508	509	508	31	0	
1	0	0	0	0	0	510	511	511	31	0	
2	0	0	0	0	0	508	511	509	31	0	
3	0	0	0	0	0	507	512	508	31	0	
4	0	0	0	0	0	505	510	508	31	0	
5	0	0	0	0	0	505	514	509	31	0	
6	0	0	0	0	0	502	515	507	31	0	
7	0	0	0	0	2	503	516	508	31	0	
8	0	0	0	0	0	502	515	511	32	0	
9	0	0	0	0	0	504	516	510	32	0	
10	0	0	0	0	0	505	513	512	32	0	
11	0	0	0	0	0	505	512	512	31	0	
12	0	0	0	0	0	504	512	510	31	0	
13	0	0	0	0	0	504	509	507	31	0	
14	0	0	0	0	0	504	511	506	31	0	
15	0	0	0	0	3	508	508	507	32	0	
0	0	0	0	0	0	508	508	512	31	0	
1	0	0	0	0	0	507	510	511	31	0	
2	0	0	0	0	0	507	512	511	31	0	
3	0	0	0	0	0	507	511	510	31	0	
4	0	0	0	0	0	507	511	510	31	0	
5	0	0	0	0	0	506	511	512	31	0	
6	0	0	0	0	0	505	513	511	31	0	
7	0	0	0	0	3	504	514	513	32	0	
8	0	0	0	0	0	502	516	510	32	0	
9	0	0	0	0	0	504	516	512	32	0	
10	0	0	0	0	0	504	515	509	32	0	
11	0	0	0	0	0	504	514	504	32	0	
12	0	0	0	0	0	502	514	506	31	0	
13	0	0	0	0	0	504	512	507	32	0	
14	0	0	0	0	0	505	509	507	32	0	
15	0	0	0	0	2	506	510	507	31	0	
0	0	0	0	0	0	507	507	508	31	0	
1	0	0	0	0	0	508	508	507	31	0	
2	0	0	0	0	0	506	509	508	31	0	
3	0	0	0	0	0	508	510	508	31	0	
4	0	0	0	0	0	507	511	508	31	0	
5	0	0	0	0	0	506	512	509	31	0	
6	0	0	0	0	0	506	514	508	31	0	
7	0	0	0	0	2	505	515	510	32	0	
8	0	0	0	0	0	504	515	509	31	0	
9	0	0	0	0	0	504	516	508	31	0	
10	0	0	0	0	0	505	516	510	32	0	
11	0	0	0	0	0	504	514	513	32	0	
12	0	0	0	0	0	507	513	515	32	0	
13	0	0	0	0	0	505	511	516	32	0	
14	0	0	0	0	0	503	507	512	32	0	
15	0	0	0	0	1	503	509	508	31	0	
0	0	0	0	0	0	502	509	507	31	0	
1	0	0	0	0	0	503	507	507	31	0	
2	0	0	0	0	0	504	508	507	31	0	
3	0	0	0	0	0	506	509	507	31	0	
4	0	0	0	0	0	506	512	508	31	0	
5	0	0	0	0	0	505	511	511	31	0	
6	0	0	0	0	0	507	514	511	31	0	
7	0	0	0	0	1	505	512	510	31	0	
8	0	0	0	0	0	505	516	510	31	0	
9	0	0	0	0	0	505	518	510	31	0	
10	0	0	0	0	0	504	516	510	32	0	
11	0	0	0	0	0	503	513	513	32	0	
12	0	0	0	0	0	503	511	509	32	0	
13	0	0	0	0	0	505	513	510	31	0	
14	0	0	0	0	0	505	513	508	31	0	
15	0	0	0	0	1	508	510	505	31	0	
0	0	0	0	0	0	506	508	507	31	0	
1	0	0	0	0	0	506	510	505	31	0	
2	0	0	0	0	0	504	507	504	31	0	
3	0	0	0	0	0	507	508	505	31	0	
4	0	0	0	0	0	504	510	505	31	0	
5	0	0	0	0	0	505	513	509	31	0	
6	0	0	0	0	0	505	513	511	32	0	
7	0	0	0	0	3	505	514	511	31	0	
8	0	0	0	0	0	503	516	512	32	0	
9	0	0	0	0	0	503	515	511	31	0	
10	0	0	0	0	0	503	518	513	31	0	
11	0	0	0	0	0	502	516	512	31	0	
12	0	0	0	0	0	505	513	510	31	0	
13	0	0	0	0	0	505	512	510	31	0	
14	0	0	0	0	0	504	512	508	31	0	
15	0	0	0	0	2	504	509	508	31	0	
0	0	0	0	0	0	504	508	510	31	0	
1	0	0	0	0	0	505	507	511	31	0	
2	0	0	0	0	0	504	508	510	31	0	
3	0	0	0	0	0	505	508	511	31	0	
4	0	0	0	0	0	507	508	511	31	0	
5	0	0	0	0	0	507	509	511	31	0	
6	0	0	0	0	0	505	511	509	31	0	
7	0	0	0	0	2	511	513	506	31	0	
8	0	0	0	0	0	508	513	505	31	0	
9	0	0	0	0	0	507	515	504	31	0	
10	0	0	0	0	0	502	517	508	31	0	
11	0	0	0	0	0	503	518	508	31	0	
12	0	0	0	0	0	504	516	509	31	0	
13	0	0	0	0	0	502	512	510	31	0	
14	0	0	0	0	0	505	512	511	32	0	
15	0	0	0	0	2	505	512	512	32	0	
0	0	0	0	0	0	506	510	512	32	0	
1	0	0	0	0	0	508	511	509	31	0	
2	0	0	0	0	0	509	506	507	31	0	
3	0	0	0	0	0	508	508	506	31	0	
4	0	0	0	0	0	506	509	509	31	0	
5	0	0	0	0	0	506	512	508	31	0	
6	0	0	0	0	0	505	512	506	31	0	
7	0	0	0	0	2	504	512	508	31	0	
8	0	0	0	0	0	504	516	507	31	0	
9	0	0	0	0	0	507	515	505	31	0	
10	0	0	0	0	0	505	518	512	31	0	
11	0	0	0	0	0	505	515	513	31	0	
12	0	0	0	0	0	507	515	511	32	0	
13	0	0	0	0	0	504	515	510	32	0	
14	0	0	0	0	0	502	514	510	32	0	
15	0	0	0	0	2	502	510	514	32	0	
0	0	0	0	0	0	502	508	512	32	0	
1	0	0	0	0	0	501	508	508	32	0	
2	0	0	0	0	0	502	507	513	31	0	
3	0	0	0	0	0	504	508	513	31	0	
4	0	0	0	0	0	502	510	512	31	0	
5	0	0	0	0	0	505	511	510	31	0	
6	0	0	0	0	0	505	514	509	31	0	
7	0	0	0	0	2	504	513	509	31	0	
8	0	0	0	0	0	507	511	509	31	0	
9	0	0	0	0	0	508	512	505	31	0	
10	0	0	0	0	0	509	513	507	31	0	
11	0	0	0	0	0	508	516	505	31	0	
12	0	0	0	0	0	507	515	502	31	0	
13	0	0	0	0	0	505	515	503	31	0	
14	0	0	0	0	0	501	513	506	31	0	
15	0	0	0	0	2	503	515	511	31	0	
0	0	0	0	0	0	503	514	516	31	0	
1	0	0	0	0	0	504	513	516	32	0	
2	0	0	0	0	0	506	508	514	31	0	
3	0	0	0	0	0	506	507	510	31	0	
4	0	0	0	0	0	508	509	508	31	0	
5	0	0	0	0	0	505	508	507	31	0	
6	0	0	0	0	0	509	510	505	31	0	
7	0	0	0	0	2	510	512	507	31	0	
8	0	0	0	0	0	510	511	510	31	0	
9	0	0	0	0	0	508	512	508	31	0	
10	0	0	0	0	0	505	515	504	31	0	
11	0	0	0	0	0	504	515	508	32	0	
12	0	0	0	0	0	503	515	506	32	0	
13	0	0	0	0	0	504	515	512	32	0	
14	0	0	0	0	0	503	516	514	31	0	
15	0	0	0	0	3	502	515	512	31	0	
0	0	0	0	0	0	505	515	514	31	0	
1	0	0	0	0	0	502	513	511	31	0	
2	0	0	0	0	0	502	513	513	32	0	
3	0	0	0	0	0	503	508	511	31	0	
4	0	0	0	0	0	505	507	507	31	0	
5	0	0	0	0	0	506	506	507	31	0	
6	0	0	0	0	0	505	509	507	31	0	
7	0	0	0	0	2	507	508	505	31	0	
8	0	0	0	0	0	506	508	506	32	0	
9	0	0	0	0	0	505	509	510	31	0	
10	0	0	0	0	0	504	511	510	31	0	
11	0	0	0	0	0	506	511	511	31	0	
12	0	0	0	0	0	506	513	513	31	0	
13	0	0	0	0	0	505	516	513	31	0	
14	0	0	0	0	0	503	515	508	31	0	
15	0	0	0	0	1	504	515	504	31	0	
0	0	0	0	0	0	504	515	506	31	0	
1	0	0	0	0	0	504	513	505	31	0	
2	0	0	0	0	0	502	511	508	31	0	
3	0	0	0	0	0	502	512	508	31	0	
4	0	0	0	0	0	504	509	513	31	0	
5	0	0	0	0	0	504	508	514	31	0	
6	0	0	0	0	0	506	509	511	31	0	
7	0	0	0	0	1	506	509	512	31	0	
8	0	0	0	0	0	507	509	511	31	0	
9	0	0	0	0	0	507	512	508	31	0	
10	0	0	0	0	0	508	513	508	31	0	
11	0	0	0	0	0	508	514	509	31	0	
12	0	0	0	0	0	508	515	507	32	0	
13	0	0	0	0	0	505	517	506	32	0	
14	0	0	0	0	0	504	515	509	32	0	
15	0	0	0	0	2	503	515	512	32	0	
0	0	0	0	0	0	503	515	512	32	0	
1	0	0	0	0	0	503	513	513	32	0	
2	0	0	0	0	0	502	512	507	31	0	
3	0	0	0	0	0	506	512	507	31	0	
4	0	0	0	0	0	506	508	507	31	0	
5	0	0	0	0	0	505	507	505	31	0	
6	0	0	0	0	0	504	508	505	31	0	
7	0	0	0	0	3	504	509	512	31	0	
8	0	0	0	0	0	506	513	507	31	0	
9	0	0	0	0	0	507	513	508	31	0	
10	0	0	0	0	0	508	514	511	31	0	
11	0	0	0	0	0	509	512	510	31	0	
12	0	0	0	0	0	507	512	508	31	0	
13	0	0	0	0	0	506	513	508	31	0	
14	0	0	0	0	0	504	513	506	31	0	
15	0	0	0	0	2	504	515	510	32	0	
0	0	0	0	0	0	504	514	509	32	0	
1	0	0	0	0	0	503	510	512	32	0	
2	0	0	0	0	0	503	508	510	32	0	
3	0	0	0	0	0	504	510	509	32	0	
4	0	0	0	0	0	503	512	511	31	0	
5	0	0	0	0	0	504	513	512	31	0	
6	0	0	0	0	0	505	511	510	31	0	
7	0	0	0	0	2	504	513	509	31	0	
8	0	0	0	0	0	508	514	508	31	0	
9	0	0	0	0	0	507	513	510	31	0	
10	0	0	0	0	0	505	515	511	31	0	
11	0	0	0	0	0	505	512	510	31	0	
12	0	0	0	0	0	505	509	510	31	0	
13	0	0	0	0	0	510	511	505	31	0	
14	0	0	0	0	0	507	514	507	31	0	
15	0	0	0	0	2	505	515	511	32	0	
0	0	0	0	0	0	505	516	509	32	0	
1	0	0	0	0	0	503	514	509	31	0	
2	0	0	0	0	0	499	512	511	32	0	
3	0	0	0	0	0	499	513	510	32	0	
4	0	0	0	0	0	502	510	513	32	0	
5	0	0	0	0	0	504	509	514	32	0	
6	0	0	0	0	0	506	512	510	31	0	
7	0	0	0	0	2	508	509	508	31	0	
8	0	0	0	0	0	509	507	508	31	0	
9	0	0	0	0	0	508	509	508	31	0	
10	0	0	0	0	0	508	508	506	31	0	
11	0	0	0	0	0	504	509	505	31	0	
12	0	0	0	0	0	506	511	507	31	0	
13	0	0	0	0	0	507	514	506	31	0	
14	0	0	0	0	0	506	516	508	31	0	
15	0	0	0	0	3	505	515	511	31	0	
0	0	0	0	0	0	504	516	511	32	0	
1	0	0	0	0	0	503	515	509	32	0	
2	0	0	0	0	0	504	512	509	32	0	
3	0	0	0	0	0	504	512	508	32	0	
4	0	0	0	0	0	504	511	508	32	0	
5	0	0	0	0	0	503	512	511	32	0	
6	0	0	0	0	0	504	511	509	31	0	
7	0	0	0	0	2	506	507	510	31	0	
8	0	0	0	0	0	504	506	512	31	0	
9	0	0	0	0	0	506	508	511	31	0	
10	0	0	0	0	0	508	511	508	31	0	
11	0	0	0	0	0	506	513	509	31	0	
12	0	0	0	0	0	507	515	511	31	0	
13	0	0	0	0	0	505	513	508	31	0	
14	0	0	0	0	0	506	512	509	31	0	
15	0	0	0	0	2	504	514	510	31	0	
0	0	0	0	0	0	502	515	512	32	0	
1	0	0	0	0	0	503	513	511	32	0	
2	0	0	0	0	0	505	511	507	31	0	
3	0	0	0	0	0	507	512	508	32	0	
4	0	0	0	0	0	505	515	509	31	0	
5	0	0	0	0	0	504	512	507	31	0	
6	0	0	0	0	0	505	511	508	31	0	
7	0	0	0	0	2	504	510	507	31	0	
8	0	0	0	0	0	504	510	505	31	0	
9	0	0	0	0	0	508	509	505	31	0	
10	0	0	0	0	0	508	510	508	31	0	
11	0	0	0	0	0	509	510	505	31	0	
12	0	0	0	0	0	508	511	505	31	0	
13	0	0	0	0	0	506	510	509	32	0	
14	0	0	0	0	0	504	513	512	31	0	
15	0	0	0	0	2	502	514	513	31	0	
0	0	0	0	0	0	503	516	515	31	0	
1	0	0	0	0	0	501	514	514	32	0	
2	0	0	0	0	0	499	515	516	32	0	
3	0	0	0	0	0	499	510	518	32	0	
4	0	0	0	0	0	502	512	513	32	0	
5	0	0	0	0	0	507	512	511	32	0	
6	0	0	0	0	0	507	513	509	31	0	
7	0	0	0	0	1	508	511	508	31	0	
8	0	0	0	0	0	509	511	504	31	0	
9	0	0	0	0	0	508	508	500	31	0	
10	0	0	0	0	0	506	511	500	31	0	
11	0	0	0	0	0	505	512	503	31	0	
12	0	0	0	0	0	506	512	508	31	0	
13	0	0	0	0	0	507	513	506	31	0	
14	0	0	0	0	0	505	512	510	31	0	
15	0	0	0	0	1	504	512	511	31	0	
0	0	0	0	0	0	504	515	511	32	0	
1	0	0	0	0	0	503	513	514	32	0	
2	0	0	0	0	0	502	515	517	32	0	
3	0	0	0	0	0	503	516	516	32	0	
4	0	0	0	0	0	503	514	516	32	0	
5	0	0	0	0	0	504	515	512	31	0	
6	0	0	0	0	0	506	513	505	31	0	
7	0	0	0	0	1	505	511	507	31	0	
8	0	0	0	0	0	503	509	509	31	0	
9	0	0	0	0	0	505	508	508	31	0	
10	0	0	0	0	0	505	507	504	31	0	
11	0	0	0	0	0	504	507	507	31	0	
12	0	0	0	0	0	506	507	504	32	0	
13	0	0	0	0	0	506	510	508	31	0	
14	0	0	0	0	0	507	510	511	31	0	
15	0	0	0	0	2	508	512	510	31	0	
0	0	0	0	0	0	507	512	510	31	0	
1	0	0	0	0	0	507	515	510	31	0	
2	0	0	0	0	0	502	516	512	31	0	
3	0	0	0	0	0	502	515	513	31	0	
4	0	0	0	0	0	501	513	512	31	0	
5	0	0	0	0	0	505	514	516	32	0	
6	0	0	0	0	0	504	512	515	32	0	
7	0	0	0	0	2	505	513	511	32	0	
8	0	0	0	0	0	504	513	508	32	0	
9	0	0	0	0	0	505	509	507	31	0	
10	0	0	0	0	0	505	510	507	32	0	
11	0	0	0	0	0	508	511	505	31	0	
12	0	0	0	0	0	510	511	504	31	0	
13	0	0	0	0	0	508	510	500	31	0	
14	0	0	0	0	0	510	512	504	31	0	
15	0	0	0	0	3	506	512	506	31	0	
0	0	0	0	0	0	505	511	505	31	0	
1	0	0	0	0	0	505	516	510	31	0	
2	0	0	0	0	0	504	515	510	31	0	
3	0	0	0	0	0	506	515	509	31	0	
4	0	0	0	0	0	505	515	509	31	0	
5	0	0	0	0	0	506	513	514	31	0	
6	0	0	0	0	0	504	514	516	32	0	
7	0	0	0	0	2	502	511	515	32	0	
8	0	0	0	0	0	503	511	510	31	0	
9	0	0	0	0	0	502	508	507	31	0	
10	0	0	0	0	0	503	508	507	31	0	
11	0	0	0	0	0	505	508	508	31	0	
12	0	0	0	0	0	504	509	512	31	0	
13	0	0	0	0	0	507	511	514	32	0	
14	0	0	0	0	0	505	513	512	32	0	
15	0	0	0	0	2	505	513	511	31	0	
0	0	0	0	0	0	507	516	510	31	0	
1	0	0	0	0	0	507	515	506	31	0	
2	0	0	0	0	0	506	515	504	32	0	
3	0	0	0	0	0	504	516	505	32	0	
4	0	0	0	0	0	504	513	509	31	0	
5	0	0	0	0	0	505	513	511	31	0	
6	0	0	0	0	0	504	511	512	31	0	
7	0	0	0	0	3	502	511	511	31	0	
8	0	0	0	0	0	505	511	508	31	0	
9	0	0	0	0	0	508	510	506	31	0	
10	0	0	0	0	0	508	509	505	31	0	
11	0	0	0	0	0	507	510	505	31	0	
12	0	0	0	0	0	508	509	508	32	0	
13	0	0	0	0	0	507	510	508	32	0	
14	0	0	0	0	0	504	512	511	32	0	
15	0	0	0	0	2	505	509	511	32	0	
0	0	0	0	0	0	505	510	513	32	0	
1	0	0	0	0	0	507	512	513	31	0	
2	0	0	0	0	0	504	515	512	31	0	
3	0	0	0	0	0	504	514	509	31	0	
4	0	0	0	0	0	500	515	508	31	0	
5	0	0	0	0	0	501	517	511	31	0	
6	0	0	0	0	0	503	516	510	31	0	
7	0	0	0	0	2	502	518	509	31	0	
8	0	0	0	0	0	504	513	512	32	0	
9	0	0	0	0	0	504	512	511	32	0	
10	0	0	0	0	0	505	512	509	32	0	
11	0	0	0	0	0	507	511	505	32	0	
12	0	0	0	0	0	505	509	505	31	0	
13	0	0	0	0	0	508	511	507	31	0	
14	0	0	0	0	0	508	510	502	31	0	
15	0	0	0	0	2	507	510	504	31	0	
0	0	0	0	0	0	508	510	507	31	0	
1	0	0	0	0	0	507	513	507	31	0	
2	0	0	0	0	0	509	512	504	31	0	
3	0	0	0	0	0	508	513	509	31	0	
4	0	0	0	0	0	504	516	512	32	0	
5	0	0	0	0	0	504	516	514	32	0	
6	0	0	0	0	0	504	513	509	32	0	
7	0	0	0	0	2	505	514	512	32	0	
8	0	0	0	0	0	504	512	515	32	0	
9	0	0	0	0	0	503	512	511	31	0	
10	0	0	0	0	0	501	510	511	31	0	
11	0	0	0	0	0	503	512	513	31	0	
12	0	0	0	0	0	506	508	512	31	0	
13	0	0	0	0	0	505	508	513	32	0	
14	0	0	0	0	0	507	508	511	31	0	
15	0	0	0	0	2	508	507	511	31	0	
0	0	0	0	0	0	505	508	510	31	0	
1	0	0	0	0	0	504	511	510	32	0	
2	0	0	0	0	0	504	510	508	32	0	
3	0	0	0	0	0	503	511	509	31	0	
4	0	0	0	0	0	505	516	505	31	0	
5	0	0	0	0	0	507	518	505	31	0	
6	0	0	0	0	0	510	516	509	31	0	
7	0	0	0	0	1	504	516	508	31	0	
8	0	0	0	0	0	505	515	510	31	0	
9	0	0	0	0	0	504	512	508	31	0	
10	0	0	0	0	0	502	513	507	31	0	
11	0	0	0	0	0	504	510	504	31	0	
12	0	0	0	0	0	504	508	504	31	0	
13	0	0	0	0	0	505	506	504	31	0	
14	0	0	0	0	0	505	508	505	31	0	
15	0	0	0	0	1	505	509	507	31	0	
0	0	0	0	0	0	507	511	507	31	0	
1	0	0	0	0	0	506	511	511	31	0	
2	0	0	0	0	0	506	511	514	31	0	
3	0	0	0	0	0	506	516	512	31	0	
4	0	0	0	0	0	506	515	510	31	0	
5	0	0	0	0	0	507	516	508	31	0	
6	0	0	0	0	0	507	515	512	32	0	
7	0	0	0	0	1	505	515	512	32	0	
8	0	0	0	0	0	503	512	511	31	0	
9	0	0	0	0	0	500	516	509	31	0	
10	0	0	0	0	0	504	515	509	32	0	
11	0	0	0	0	0	504	511	504	32	0	
12	0	0	0	0	0	502	508	508	32	0	
13	0	0	0	0	0	501	506	513	32	0	
14	0	0	0	0	0	504	507	511	31	0	
15	0	0	0	0	2	504	507	511	31	0	
0	0	0	0	0	0	507	512	513	31	0	
1	0	0	0	0	0	507	511	510	31	0	
2	0	0	0	0	0	509	512	505	31	0	
3	0	0	0	0	0	506	514	507	31	0	
4	0	0	0	0	0	507	515	506	31	0	
5	0	0	0	0	0	504	516	503	31	0	
6	0	0	0	0	0	505	517	509	31	0	
7	0	0	0	0	2	504	516	515	32	0	
8	0	0	0	0	0	504	516	517	32	0	
9	0	0	0	0	0	504	515	512	31	0	
10	0	0	0	0	0	505	513	513	32	0	
11	0	0	0	0	0	507	513	510	31	0	
12	0	0	0	0	0	507	511	512	31	0	
13	0	0	0	0	0	504	509	508	31	0	
14	0	0	0	0	0	506	507	507	31	0	
15	0	0	0	0	2	507	508	506	31	0	
0	0	0	0	0	0	506	510	506	31	0	
1	0	0	0	0	0	508	511	511	31	0	
2	0	0	0	0	0	506	512	510	32	0	
3	0	0	0	0	0	507	514	509	31	0	
4	0	0	0	0	0	507	515	509	31	0	
5	0	0	0	0	0	507	515	509	32	0	
6	0	0	0	0	0	504	513	511	32	0	
7	0	0	0	0	3	503	513	516	32	0	
8	0	0	0	0	0	500	514	515	32	0	
9	0	0	0	0	0	499	515	509	31	0	
10	0	0	0	0	0	501	515	509	31	0	
11	0	0	0	0	0	503	513	507	31	0	
12	0	0	0	0	0	504	511	504	31	0	
13	0	0	0	0	0	504	510	506	31	0	
14	0	0	0	0	0	505	507	507	31	0	
15	0	0	0	0	2	505	507	506	31	0	
0	0	0	0	0	0	504	508	504	31	0	
1	0	0	0	0	0	507	507	503	31	0	
2	0	0	0	0	0	508	512	504	31	0	
3	0	0	0	0	0	506	513	509	31	0	
4	0	0	0	0	0	506	513	509	31	0	
5	0	0	0	0	0	508	515	507	31	0	
6	0	0	0	0	0	507	515	509	31	0	
7	0	0	0	0	2	507	516	509	32	0	
8	0	0	0	0	0	505	517	508	32	0	
9	0	0	0	0	0	503	518	513	32	0	
10	0	0	0	0	0	502	515	515	32	0	
11	0	0	0	0	0	503	513	517	32	0	
12	0	0	0	0	0	503	511	519	32	0	
13	0	0	0	0	0	504	511	515	32	0	
14	0	0	0	0	0	503	507	512	31	0	
15	0	0	0	0	2	505	507	510	31	0	
0	0	0	0	0	0	507	508	504	31	0	
1	0	0	0	0	0	505	508	503	31	0	
2	0	0	0	0	0	507	508	505	31	0	
3	0	0	0	0	0	508	508	506	31	0	
4	0	0	0	0	0	508	511	507	31	0	
5	0	0	0	0	0	507	512	505	31	0	
6	0	0	0	0	0	509	511	502	31	0	
7	0	0	0	0	2	508	515	503	31	0	
8	0	0	0	0	0	505	517	507	31	0	
9	0	0	0	0	0	504	518	510	32	0	
10	0	0	0	0	0	500	516	510	32	0	
11	0	0	0	0	0	499	516	514	32	0	
12	0	0	0	0	0	501	516	515	32	0	
13	0	0	0	0	0	501	513	513	32	0	
14	0	0	0	0	0	502	510	513	32	0	
15	0	0	0	0	3	503	507	512	32	0	
0	0	0	0	0	0	505	508	511	32	0	
1	0	0	0	0	0	508	508	510	31	0	
2	0	0	0	0	0	509	510	510	32	0	
3	0	0	0	0	0	508	508	510	31	0	
4	0	0	0	0	0	507	508	511	31	0	
5	0	0	0	0	0	508	510	510	31	0	
6	0	0	0	0	0	508	512	508	31	0	
7	0	0	0	0	2	506	515	504	31	0	
8	0	0	0	0	0	504	515	504	31	0	
9	0	0	0	0	0	504	514	505	31	0	
10	0	0	0	0	0	504	515	510	31	0	
11	0	0	0	0	0	502	515	512	31	0	
12	0	0	0	0	0	503	515	511	31	0	
13	0	0	0	0	0	501	512	508	31	0	
14	0	0	0	0	0	502	510	508	32	0	
15	0	0	0	0	2	503	511	509	32	0	
0	0	0	0	0	0	505	512	507	32	0	
1	0	0	0	0	0	506	511	513	31	0	
2	0	0	0	0	0	508	509	514	31	0	
3	0	0	0	0	0	508	510	510	31	0	
4	0	0	0	0	0	505	509	509	31	0	
5	0	0	0	0	0	507	509	507	31	0	
6	0	0	0	0	0	507	513	507	31	0	
7	0	0	0	0	1	508	513	508	31	0	
8	0	0	0	0	0	506	515	507	31	0	
9	0	0	0	0	0	505	512	507	31	0	
10	0	0	0	0	0	502	517	510	32	0	
11	0	0	0	0	0	504	515	512	31	0	
12	0	0	0	0	0	503	516	510	32	0	
13	0	0	0	0	0	503	515	509	32	0	
14	0	0	0	0	0	504	512	512	32	0	
15	0	0	0	0	1	504	511	514	32	0	
0	0	0	0	0	0	504	509	513	32	0	
1	0	0	0	0	0	505	510	514	32	0	
2	0	0	0	0	0	506	508	512	31	0	
3	0	0	0	0	0	506	507	512	31	0	
4	0	0	0	0	0	507	509	505	31	0	
5	0	0	0	0	0	507	508	502	31	0	
6	0	0	0	0	0	508	510	502	31	0	
7	0	0	0	0	3	507	513	500	31	0	
8	0	0	0	0	0	506	512	505	31	0	
9	0	0	0	0	0	504	515	511	31	0	
10	0	0	0	0	0	504	517	510	31	0	
11	0	0	0	0	0	504	516	512	32	0	
12	0	0	0	0	0	503	515	511	32	0	
13	0	0	0	0	0	504	517	514	32	0	
14	0	0	0	0	0	503	513	515	32	0	
15	0	0	0	0	2	505	512	513	32	0	
0	0	0	0	0	0	505	512	511	32	0	
1	0	0	0	0	0	505	511	505	31	0	
2	0	0	0	0	0	505	508	505	31	0	
3	0	0	0	0	0	507	509	508	31	0	
4	0	0	0	0	0	506	508	509	31	0	
5	0	0	0	0	0	505	508	506	31	0	
6	0	0	0	0	0	505	512	508	31	0	
7	0	0	0	0	2	504	511	508	31	0	
8	0	0	0	0	0	503	513	508	31	0	
9	0	0	0	0	0	504	514	508	31	0	
10	0	0	0	0	0	504	513	508	31	0	
11	0	0	0	0	0	504	515	511	32	0	
12	0	0	0	0	0	506	515	509	32	0	
13	0	0	0	0	0	507	516	507	32	0	
14	0	0	0	0	0	505	513	511	32	0	
15	0	0	0	0	2	504	513	511	32	0	
0	0	0	0	0	0	505	512	512	32	0	
1	0	0	0	0	0	504	511	510	31	0	
2	0	0	0	0	0	502	510	511	31	0	
3	0	0	0	0	0	507	509	512	31	0	
4	0	0	0	0	0	505	509	512	31	0	
5	0	0	0	0	0	508	510	507	31	0	
6	0	0	0	0	0	509	512	505	31	0	
7	0	0	0	0	2	508	512	505	31	0	
8	0	0	0	0	0	508	513	504	31	0	
9	0	0	0	0	0	508	515	509	31	0	
10	0	0	0	0	0	506	512	511	31	0	
11	0	0	0	0	0	503	514	509	31	0	
12	0	0	0	0	0	503	513	515	32	0	
13	0	0	0	0	0	503	513	515	32	0	
14	0	0	0	0	0	502	515	513	31	0	
15	0	0	0	0	3	502	514	511	31	0	
0	0	0	0	0	0	504	512	510	31	0	
1	0	0	0	0	0	500	512	509	32	0	
2	0	0	0	0	0	502	508	511	32	0	
3	0	0	0	0	0	504	506	514	32	0	
4	0	0	0	0	0	505	504	509	31	0	
5	0	0	0	0	0	508	508	510	31	0	
6	0	0	0	0	0	508	508	507	31	0	
7	0	0	0	0	2	506	513	505	31	0	
8	0	0	0	0	0	508	513	504	31	0	
9	0	0	0	0	0	508	513	503	31	0	
10	0	0	0	0	0	508	514	498	31	0	
11	0	0	0	0	0	508	515	502	31	0	
12	0	0	0	0	0	505	517	505	31	0	
13	0	0	0	0	0	503	515	508	31	0	
14	0	0	0	0	0	505	513	509	31	0	
15	0	0	0	0	2	505	515	513	32	0	
0	0	0	0	0	0	503	514	514	32	0	
1	0	0	0	0	0	504	514	511	32	0	
2	0	0	0	0	0	505	512	513	32	0	
3	0	0	0	0	0	505	511	511	32	0	
4	0	0	0	0	0	505	510	508	31	0	
5	0	0	0	0	0	508	509	507	31	0	
6	0	0	0	0	0	505	504	504	31	0	
7	0	0	0	0	2	506	508	508	31	0	
8	0	0	0	0	0	504	511	510	31	0	
9	0	0	0	0	0	504	510	512	31	0	
10	0	0	0	0	0	505	512	513	31	0	
11	0	0	0	0	0	504	512	513	31	0	
12	0	0	0	0	0	505	515	512	31	0	
13	0	0	0	0	0	503	517	510	32	0	
14	0	0	0	0	0	504	517	511	32	0	
15	0	0	0	0	2	503	515	512	31	0	
0	0	0	0	0	0	506	513	511	31	0	
1	0	0	0	0	0	505	513	510	31	0	
2	0	0	0	0	0	506	509	508	32	0	
3	0	0	0	0	0	504	509	508	32	0	
4	0	0	0	0	0	505	510	508	32	0	
5	0	0	0	0	0	505	507	505	31	0	
6	0	0	0	0	0	508	507	510	31	0	
7	0	0	0	0	2	508	509	510	31	0	
8	0	0	0	0	0	504	510	505	31	0	
9	0	0	0	0	0	506	509	505	31	0	
10	0	0	0	0	0	504	510	508	31	0	
11	0	0	0	0	0	504	512	511	31	0	
12	0	0	0	0	0	504	513	511	31	0	
13	0	0	0	0	0	502	515	510	31	0	
14	0	0	0	0	0	502	516	510	31	0	
15	0	0	0	0	1	505	516	508	31	0	
0	0	0	0	0	0	504	515	508	31	0	
1	0	0	0	0	0	501	515	508	31	0	
2	0	0	0	0	0	504	514	508	31	0	
3	0	0	0	0	0	506	514	511	31	0	
4	0	0	0	0	0	506	511	509	31	0	
5	0	0	0	0	0	505	509	507	31	0	
6	0	0	0	0	0	507	510	505	31	0	
7	0	0	0	0	1	507	509	503	31	0	
8	0	0	0	0	0	508	508	505	31	0	
9	0	0	0	0	0	507	511	510	31	0	
10	0	0	0	0	0	509	512	509	31	0	
11	0	0	0	0	0	508	512	511	31	0	
12	0	0	0	0	0	504	512	513	31	0	
13	0	0	0	0	0	503	515	512	31	0	
14	0	0	0	0	0	503	514	512	31	0	
15	0	0	0	0	1	503	515	515	32	0	
0	0	0	0	0	0	504	515	515	32	0	
1	0	0	0	0	0	503	513	511	32	0	
2	0	0	0	0	0	504	512	511	32	0	
3	0	0	0	0	0	505	513	513	32	0	
4	0	0	0	0	0	507	511	511	31	0	
5	0	0	0	0	0	506	509	507	31	0	
6	0	0	0	0	0	508	510	505	31	0	
7	0	0	0	0	2	508	510	503	31	0	
8	0	0	0	0	0	511	510	502	31	0	
9	0	0	0	0	0	508	508	499	31	0	
10	0	0	0	0	0	506	510	500	31	0	
11	0	0	0	0	0	507	511	501	31	0	
12	0	0	0	0	0	504	513	505	31	0	
13	0	0	0	0	0	505	514	512	31	0	
14	0	0	0	0	0	503	515	516	31	0	
15	0	0	0	0	3	503	516	515	32	0	
0	0	0	0	0	0	503	515	516	31	0	
1	0	0	0	0	0	504	517	517	32	0	
2	0	0	0	0	0	503	516	516	32	0	
3	0	0	0	0	0	503	513	516	32	0	
4	0	0	0	0	0	502	511	511	32	0	
5	0	0	0	0	0	504	512	508	31	0	
6	0	0	0	0	0	504	509	508	31	0	
7	0	0	0	0	3	507	507	508	31	0	
8	0	0	0	0	0	507	508	504	31	0	
9	0	0	0	0	0	508	510	499	31	0	
10	0	0	0	0	0	508	510	500	31	0	
11	0	0	0	0	0	505	511	503	31	0	
12	0	0	0	0	0	504	510	506	31	0	
13	0	0	0	0	0	504	512	511	32	0	
14	0	0	0	0	0	505	513	509	32	0	
15	0	0	0	0	2	507	516	510	31	0	
0	0	0	0	0	0	504	516	507	32	0	
1	0	0	0	0	0	504	516	512	32	0	
2	0	0	0	0	0	503	516	514	32	0	
3	0	0	0	0	0	503	515	513	32	0	
4	0	0	0	0	0	503	514	516	32	0	
5	0	0	0	0	0	505	511	509	31	0	
6	0	0	0	0	0	507	511	508	31	0	
7	0	0	0	0	2	507	510	512	31	0	
8	0	0	0	0	0	510	505	511	31	0	
9	0	0	0	0	0	510	509	508	31	0	
10	0	0	0	0	0	510	509	507	31	0	
11	0	0	0	0	0	510	510	504	31	0	
12	0	0	0	0	0	504	509	505	31	0	
13	0	0	0	0	0	502	509	504	31	0	
14	0	0	0	0	0	502	511	507	31	0	
15	0	0	0	0	2	501	515	505	31	0	
0	0	0	0	0	0	502	515	509	31	0	
1	0	0	0	0	0	504	517	513	31	0	
2	0	0	0	0	0	502	514	513	32	0	
3	0	0	0	0	0	505	513	514	32	0	
4	0	0	0	0	0	505	515	516	32	0	
5	0	0	0	0	0	505	513	514	32	0	
6	0	0	0	0	0	504	511	511	31	0	
7	0	0	0	0	3	506	510	511	31	0	
8	0	0	0	0	0	506	510	509	31	0	
9	0	0	0	0	0	504	509	507	31	0	
10	0	0	0	0	0	506	509	508	31	0	
11	0	0	0	0	0	507	511	508	31	0	
12	0	0	0	0	0	507	510	508	31	0	
13	0	0	0	0	0	508	512	508	31	0	
14	0	0	0	0	0	505	513	507	31	0	
15	0	0	0	0	2	507	513	507	31	0	
0	0	0	0	0	0	505	515	509	31	0	
1	0	0	0	0	0	504	515	509	31	0	
2	0	0	0	0	0	503	515	511	31	0	
3	0	0	0	0	0	503	515	507	31	0	
4	0	0	0	0	0	504	513	507	31	0	
5	0	0	0	0	0	503	514	511	31	0	
6	0	0	0	0	0	506	512	510	31	0	
7	0	0	0	0	2	504	512	511	31	0	
8	0	0	0	0	0	505	508	515	32	0	
9	0	0	0	0	0	505	507	513	31	0	
10	0	0	0	0	0	508	507	511	31	0	
11	0	0	0	0	0	507	509	510	31	0	
12	0	0	0	0	0	506	510	508	31	0	
13	0	0	0	0	0	507	511	505	31	0	
14	0	0	0	0	0	505	513	506	31	0	
15	0	0	0	0	2	506	515	511	31	0	
0	0	0	0	0	0	507	515	510	31	0	
1	0	0	0	0	0	505	514	509	31	0	
2	0	0	0	0	0	501	512	510	31	0	
3	0	0	0	0	0	501	513	508	31	0	
4	0	0	0	0	0	499	514	511	31	0	
5	0	0	0	0	0	501	513	512	32	0	
6	0	0	0	0	0	506	511	512	32	0	
7	0	0	0	0	3	506	512	512	31	0	
8	0	0	0	0	0	505	508	510	31	0	
9	0	0	0	0	0	505	510	510	31	0	
10	0	0	0	0	0	507	505	508	31	0	
11	0	0	0	0	0	508	511	506	31	0	
12	0	0	0	0	0	507	510	505	31	0	
13	0	0	0	0	0	507	512	505	31	0	
14	0	0	0	0	0	507	512	507	31	0	
15	0	0	0	0	1	505	512	508	31	0	
0	0	0	0	0	0	504	512	510	31	0	
1	0	0	0	0	0	503	515	511	31	0	
2	0	0	0	0	0	503	517	513	31	0	
3	0	0	0	0	0	503	516	513	31	0	
4	0	0	0	0	0	503	513	513	32	0	
5	0	0	0	0	0	504	513	513	31	0	
6	0	0	0	0	0	502	513	509	31	0	
7	0	0	0	0	1	504	510	507	31	0	
8	0	0	0	0	0	505	511	504	31	0	
9	0	0	0	0	0	507	508	504	31	0	
10	0	0	0	0	0	506	509	504	31	0	
11	0	0	0	0	0	507	507	507	31	0	
12	0	0	0	0	0	507	510	507	31	0	
13	0	0	0	0	0	508	511	507	31	0	
14	0	0	0	0	0	509	512	507	31	0	
15	0	0	0	0	1	506	512	510	31	0	
0	0	0	0	0	0	504	513	510	31	0	
1	0	0	0	0	0	505	516	508	31	0	
2	0	0	0	0	0	505	516	509	31	0	
3	0	0	0	0	0	505	515	511	32	0	
4	0	0	0	0	0	503	518	511	32	0	
5	0	0	0	0	0	500	514	514	32	0	
6	0	0	0	0	0	504	516	517	32	0	
7	0	0	0	0	2	503	512	513	32	0	
8	0	0	0	0	0	503	511	510	31	0	
9	0	0	0	0	0	505	510	509	31	0	
10	0	0	0	0	0	505	509	508	31	0	
11	0	0	0	0	0	506	508	507	31	0	
12	0	0	0	0	0	507	509	507	31	0	
13	0	0	0	0	0	506	511	507	31	0	
14	0	0	0	0	0	507	510	508	31	0	
15	0	0	0	0	2	507	511	508	31	0	
0	0	0	0	0	0	505	512	509	31	0	
1	0	0	0	0	0	504	512	508	31	0	
2	0	0	0	0	0	505	515	511	31	0	
3	0	0	0	0	0	507	516	513	31	0	
4	0	0	0	0	0	504	513	510	31	0	
5	0	0	0	0	0	503	513	513	31	0	
6	0	0	0	0	0	504	512	511	31	0	
7	0	0	0	0	3	504	514	512	31	0	
8	0	0	0	0	0	506	511	508	31	0	
9	0	0	0	0	0	505	509	508	31	0	
10	0	0	0	0	0	505	507	501	31	0	
11	0	0	0	0	0	507	506	502	31	0	
12	0	0	0	0	0	508	505	502	31	0	
13	0	0	0	0	0	507	510	506	31	0	
14	0	0	0	0	0	505	510	510	31	0	
15	0	0	0	0	3	507	510	511	31	0	
0	0	0	0	0	0	505	512	509	31	0	
1	0	0	0	0	0	505	513	509	31	0	
2	0	0	0	0	0	505	517	510	31	0	
3	0	0	0	0	0	504	516	512	32	0	
4	0	0	0	0	0	504	518	513	32	0	
5	0	0	0	0	0	505	517	510	32	0	
6	0	0	0	0	0	503	515	508	32	0	
7	0	0	0	0	3	505	514	508	32	0	
8	0	0	0	0	0	504	512	508	32	0	
9	0	0	0	0	0	504	512	510	32	0	
10	0	0	0	0	0	504	511	512	32	0	
11	0	0	0	0	0	504	510	510	31	0	
12	0	0	0	0	0	502	508	506	31	0	
13	0	0	0	0	0	504	507	507	31	0	
14	0	0	0	0	0	505	505	508	31	0	
15	0	0	0	0	2	508	511	509	31	0	
0	0	0	0	0	0	507	512	512	31	0	
1	0	0	0	0	0	508	513	511	31	0	
2	0	0	0	0	0	508	513	512	31	0	
3	0	0	0	0	0	507	515	511	31	0	
4	0	0	0	0	0	508	513	508	31	0	
5	0	0	0	0	0	504	516	507	31	0	
6	0	0	0	0	0	501	513	508	31	0	
7	0	0	0	0	2	500	511	510	32	0	
8	0	0	0	0	0	501	512	508	32	0	
9	0	0	0	0	0	503	512	509	32	0	
10	0	0	0	0	0	502	511	511	32	0	
11	0	0	0	0	0	500	510	512	32	0	
12	0	0	0	0	0	504	510	511	31	0	
13	0	0	0	0	0	505	509	509	31	0	
14	0	0	0	0	0	507	508	510	31	0	
15	0	0	0	0	3	508	508	510	31	0	
0	0	0	0	0	0	508	511	510	31	0	
1	0	0	0	0	0	510	513	509	31	0	
2	0	0	0	0	0	508	514	508	31	0	
3	0	0	0	0	0	508	514	506	31	0	
4	0	0	0	0	0	506	514	506	31	0	
5	0	0	0	0	0	505	516	507	31	0	
6	0	0	0	0	0	504	515	513	32	0	
7	0	0	0	0	2	505	516	511	32	0	
8	0	0	0	0	0	503	514	512	32	0	
9	0	0	0	0	0	503	512	514	32	0	
10	0	0	0	0	0	505	513	508	31	0	
11	0	0	0	0	0	506	511	510	31	0	
12	0	0	0	0	0	508	508	505	31	0	
13	0	0	0	0	0	507	511	503	31	0	
14	0	0	0	0	0	507	509	502	31	0	
15	0	0	0	0	2	506	510	502	31	0	
0	0	0	0	0	0	506	511	506	31	0	
1	0	0	0	0	0	505	510	507	31	0	
2	0	0	0	0	0	505	512	508	31	0	
3	0	0	0	0	0	504	512	508	31	0	
4	0	0	0	0	0	505	512	511	31	0	
5	0	0	0	0	0	505	513	512	31	0	
6	0	0	0	0	0	503	514	513	32	0	
7	0	0	0	0	2	502	515	512	32	0	
8	0	0	0	0	0	501	514	511	32	0	
9	0	0	0	0	0	502	514	510	32	0	
10	0	0	0	0	0	502	515	510	32	0	
11	0	0	0	0	0	504	512	513	32	0	
12	0	0	0	0	0	504	511	515	32	0	
13	0	0	0	0	0	504	510	514	32	0	
14	0	0	0	0	0	507	509	511	31	0	
15	0	0	0	0	1	508	509	508	31	0	
0	0	0	0	0	0	510	509	504	31	0	
1	0	0	0	0	0	510	510	503	31	0	
2	0	0	0	0	0	508	510	507	31	0	
3	0	0	0	0	0	504	511	505	31	0	
4	0	0	0	0	0	505	511	510	31	0	
5	0	0	0	0	0	504	513	508	32	0	
6	0	0	0	0	0	505	514	504	31	0	
7	0	0	0	0	1	504	515	505	32	0	
8	0	0	0	0	0	504	512	509	32	0	
9	0	0	0	0	0	504	513	510	32	0	
10	0	0	0	0	0	503	516	509	32	0	
11	0	0	0	0	0	505	513	510	31	0	
12	0	0	0	0	0	506	513	511	32	0	
13	0	0	0	0	0	507	509	512	32	0	
14	0	0	0	0	0	506	510	513	32	0	
15	0	0	0	0	2	505	508	516	32	0	
0	0	0	0	0	0	505	509	516	32	0	
1	0	0	0	0	0	505	508	516	32	0	
2	0	0	0	0	0	507	510	515	31	0	
3	0	0	0	0	0	506	511	509	31	0	
4	0	0	0	0	0	509	515	507	31	0	
5	0	0	0	0	0	509	513	504	31	0	
6	0	0	0	0	0	506	517	502	31	0	
7	0	0	0	0	2	504	518	500	31	0	
8	0	0	0	0	0	504	515	496	31	0	
9	0	0	0	0	0	503	514	496	31	0	
10	0	0	0	0	0	503	513	500	31	0	
11	0	0	0	0	0	499	513	506	31	0	
12	0	0	0	0	0	500	514	509	31	0	
13	0	0	0	0	0	501	511	513	31	0	
14	0	0	0	0	0	502	508	514	31	0	
15	0	0	0	0	2	504	508	512	31	0	
0	0	0	0	0	0	505	508	509	31	0	
1	0	0	0	0	0	506	509	512	32	0	
2	0	0	0	0	0	508	508	515	32	0	
3	0	0	0	0	0	509	510	515	32	0	
4	0	0	0	0	0	509	513	513	32	0	
5	0	0	0	0	0	510	512	512	31	0	
6	0	0	0	0	0	508	512	511	31	0	
7	0	0	0	0	2	505	515	511	31	0	
8	0	0	0	0	0	504	515	510	32	0	
9	0	0	0	0	0	504	515	507	32	0	
10	0	0	0	0	0	505	514	509	32	0	
11	0	0	0	0	0	503	515	511	32	0	
12	0	0	0	0	0	505	515	512	32	0	
13	0	0	0	0	0	503	513	510	32	0	
14	0	0	0	0	0	504	512	510	31	0	
15	0	0	0	0	3	504	511	511	31	0	
0	0	0	0	0	0	504	507	510	31	0	
1	0	0	0	0	0	506	509	508	31	0	
2	0	0	0	0	0	508	509	504	31	0	
3	0	0	0	0	0	507	511	505	31	0	
4	0	0	0	0	0	504	512	507	31	0	
5	0	0	0	0	0	507	511	507	31	0	
6	0	0	0	0	0	506	512	508	31	0	
7	0	0	0	0	2	506	514	508	31	0	
8	0	0	0	0	0	507	516	509	31	0	
9	0	0	0	0	0	506	515	509	32	0	
10	0	0	0	0	0	504	514	510	32	0	
11	0	0	0	0	0	503	512	512	32	0	
12	0	0	0	0	0	502	513	512	32	0	
13	0	0	0	0	0	504	514	513	32	0	
14	0	0	0	0	0	503	512	515	32	0	
15	0	0	0	0	2	503	511	510	31	0	
0	0	0	0	0	0	503	507	510	31	0	
1	0	0	0	0	0	504	507	511	31	0	
2	0	0	0	0	0	507	507	509	31	0	
3	0	0	0	0	0	505	508	510	31	0	
4	0	0	0	0	0	506	510	507	31	0	
5	0	0	0	0	0	507	511	506	31	0	
6	0	0	0	0	0	505	510	507	31	0	
7	0	0	0	0	2	507	515	510	31	0	
8	0	0	0	0	0	506	515	508	31	0	
9	0	0	0	0	0	505	516	508	31	0	
10	0	0	0	0	0	505	517	512	32	0	
11	0	0	0	0	0	505	516	511	32	0	
12	0	0	0	0	0	504	515	511	32	0	
13	0	0	0	0	0	504	511	510	32	0	
14	0	0	0	0	0	504	509	507	31	0	
15	0	0	0	0	2	505	511	506	31	0	
0	0	0	0	0	0	505	511	508	31	0	
1	0	0	0	0	0	505	508	507	31	0	
2	0	0	0	0	0	507	507	508	31	0	
3	0	0	0	0	0	507	508	508	31	0	
4	0	0	0	0	0	507	510	505	31	0	
5	0	0	0	0	0	507	511	508	31	0	
6	0	0	0	0	0	504	511	511	31	0	
7	0	0	0	0	3	504	513	508	31	0	
8	0	0	0	0	0	506	513	508	31	0	
9	0	0	0	0	0	505	515	511	32	0	
10	0	0	0	0	0	504	517	513	32	0	
11	0	0	0	0	0	502	518	512	32	0	
12	0	0	0	0	0	502	515	510	32	0	
13	0	0	0	0	0	502	517	511	31	0	
14	0	0	0	0	0	503	514	511	32	0	
15	0	0	0	0	2	501	511	511	31	0	
0	0	0	0	0	0	501	509	511	32	0	
1	0	0	0	0	0	505	507	508	31	0	
2	0	0	0	0	0	506	507	510	31	0	
3	0	0	0	0	0	505	508	509	31	0	
4	0	0	0	0	0	507	508	507	31	0	
5	0	0	0	0	0	509	510	506	31	0	
6	0	0	0	0	0	510	511	508	31	0	
7	0	0	0	0	1	509	513	507	31	0	
8	0	0	0	0	0	506	513	509	32	0	
9	0	0	0	0	0	508	516	512	32	0	
10	0	0	0	0	0	507	517	512	31	0	
11	0	0	0	0	0	504	514	509	31	0	
12	0	0	0	0	0	503	514	510	31	0	
13	0	0	0	0	0	504	516	508	31	0	
14	0	0	0	0	0	503	516	508	32	0	
15	0	0	0	0	1	503	516	508	31	0	
0	0	0	0	0	0	504	511	507	31	0	
1	0	0	0	0	0	505	510	507	31	0	
2	0	0	0	0	0	505	508	506	31	0	
3	0	0	0	0	0	507	508	508	31	0	
4	0	0	0	0	0	506	509	504	31	0	
5	0	0	0	0	0	506	509	505	31	0	
6	0	0	0	0	0	505	508	507	31	0	
7	0	0	0	0	1	504	509	507	31	0	
8	0	0	0	0	0	504	510	511	31	0	
9	0	0	0	0	0	505	513	510	31	0	
10	0	0	0	0	0	504	515	513	32	0	
11	0	0	0	0	0	504	515	514	32	0	
12	0	0	0	0	0	504	515	513	32	0	
13	0	0	0	0	0	503	515	512	32	0	
14	0	0	0	0	0	505	512	514	32	0	
15	0	0	0	0	3	503	512	515	32	0	
0	0	0	0	0	0	504	512	514	32	0	
1	0	0	0	0	0	506	510	511	32	0	
2	0	0	0	0	0	508	510	511	31	0	
3	0	0	0	0	0	509	508	510	31	0	
4	0	0	0	0	0	507	508	502	31	0	
5	0	0	0	0	0	507	509	499	31	0	
6	0	0	0	0	0	507	511	505	31	0	
7	0	0	0	0	3	508	509	505	31	0	
8	0	0	0	0	0	507	510	505	31	0	
9	0	0	0	0	0	503	512	507	31	0	
10	0	0	0	0	0	503	513	504	31	0	
11	0	0	0	0	0	504	513	505	32	0	
12	0	0	0	0	0	503	516	503	32	0	
13	0	0	0	0	0	502	515	510	32	0	
14	0	0	0	0	0	504	517	516	32	0	
15	0	0	0	0	2	503	518	515	31	0	
0	0	0	0	0	0	505	515	513	31	0	
1	0	0	0	0	0	503	511	510	31	0	
2	0	0	0	0	0	507	512	506	31	0	
3	0	0	0	0	0	507	510	505	31	0	
4	0	0	0	0	0	505	509	505	31	0	
5	0	0	0	0	0	506	511	510	31	0	
6	0	0	0	0	0	506	512	514	31	0	
7	0	0	0	0	2	505	512	515	31	0	
8	0	0	0	0	0	507	510	516	31	0	
9	0	0	0	0	0	506	513	512	31	0	
10	0	0	0	0	0	507	512	509	31	0	
11	0	0	0	0	0	504	513	508	31	0	
12	0	0	0	0	0	507	513	505	32	0	
13	0	0	0	0	0	504	514	508	32	0	
14	0	0	0	0	0	506	516	510	31	0	
15	0	0	0	0	2	504	513	509	31	0	
0	0	0	0	0	0	503	512	511	32	0	
1	0	0	0	0	0	503	512	509	32	0	
2	0	0	0	0	0	503	512	509	32	0	
3	0	0	0	0	0	504	513	511	32	0	
4	0	0	0	0	0	505	508	507	32	0	
5	0	0	0	0	0	506	508	504	32	0	
6	0	0	0	0	0	508	509	506	32	0	
7	0	0	0	0	2	505	508	508	32	0	
8	0	0	0	0	0	507	512	511	32	0	
9	0	0	0	0	0	506	510	512	31	0	
10	0	0	0	0	0	507	513	511	31	0	
11	0	0	0	0	0	506	514	511	30	0	
12	0	0	0	0	0	507	514	508	30	0	
13	0	0	0	0	0	505	514	507	30	0	
14	0	0	0	0	0	505	514	509	30	0	
15	0	0	0	0	2	504	511	508	31	0	
0	0	0	0	0	0	502	512	510	32	0	
1	0	0	0	0	0	503	511	510	32	0	
2	0	0	0	0	0	503	512	511	33	0	
3	0	0	0	0	0	502	513	513	33	0	
4	0	0	0	0	0	502	511	513	32	0	
5	0	0	0	0	0	502	510	519	32	0	
6	0	0	0	0	0	504	509	533	31	0	
7	0	0	0	0	2	510	509	543	32	0	
8	0	0	0	0	0	514	511	541	33	0	
9	0	0	0	0	0	513	513	529	33	0	
10	0	0	0	0	0	508	514	512	32	0	
11	0	0	0	0	0	505	514	492	30	0	
12	0	0	0	0	0	503	513	471	29	0	
13	0	0	0	0	0	503	515	461	30	0	
14	0	0	0	0	0	505	513	456	31	0	
15	0	0	0	0	2	505	515	472	31	0	
0	0	0	0	0	0	502	518	494	31	0	
1	0	0	0	0	0	502	514	515	31	0	
2	0	0	0	0	0	500	513	523	31	0	
3	0	0	0	0	0	503	510	520	30	0	
4	0	0	0	0	0	505	510	500	30	0	
5	0	0	0	0	0	507	507	494	30	0	
6	0	0	0	0	0	507	507	489	30	0	
7	0	0	0	0	2	508	508	493	30	0	
8	0	0	0	0	0	505	508	502	31	0	
9	0	0	0	0	0	504	509	515	31	0	
10	0	0	0	0	0	508	508	518	32	0	
11	0	0	0	0	0	507	512	522	32	0	
12	0	0	0	0	0	505	512	527	33	0	
13	0	0	0	0	0	505	514	527	33	0	
14	0	0	0	0	0	504	517	524	33	0	
15	0	0	0	0	3	500	517	533	33	0	
0	0	0	0	0	0	502	517	536	33	0	
1	0	0	0	0	0	505	519	537	34	0	
2	0	0	0	0	0	506	518	532	34	0	
3	0	0	0	0	0	507	515	517	33	0	
4	0	0	0	0	0	505	513	502	31	0	
5	0	0	0	0	0	506	512	501	30	0	
6	0	0	0	0	0	510	510	498	29	0	
7	0	0	0	0	1	510	507	494	29	0	
8	0	0	0	0	0	506	508	486	29	0	
9	0	0	0	0	0	503	508	481	30	0	
10	0	0	0	0	0	501	506	489	31	0	
11	0	0	0	0	0	500	509	500	32	0	
12	0	0	0	0	0	502	510	511	32	0	
13	0	0	0	0	0	503	512	521	33	0	
14	0	0	0	0	0	505	516	528	33	0	
15	0	0	0	0	1	505	519	533	33	0	
0	0	0	0	0	0	503	519	537	32	0	
1	0	0	0	0	0	504	515	529	31	0	
2	0	0	0	0	0	504	519	513	32	0	
3	0	0	0	0	0	506	518	495	32	0	
4	0	0	0	0	0	507	512	484	32	0	
5	0	0	0	0	0	504	511	491	34	0	
6	0	0	0	0	0	503	511	511	35	0	
7	0	0	0	0	1	501	508	540	34	0	
8	0	0	0	0	0	504	505	568	31	0	
9	0	0	0	0	0	508	504	572	28	0	
10	0	0	0	0	0	513	502	537	26	0	
11	0	0	0	0	0	514	508	487	25	0	
12	0	0	0	0	0	508	508	445	24	0	
13	0	0	0	0	0	504	503	440	27	0	
14	0	0	0	0	0	504	505	470	31	0	
15	0	0	0	0	2	503	513	489	36	0	
0	0	0	0	0	0	502	518	496	39	0	
1	0	0	0	0	0	502	521	500	37	0	
2	0	0	0	0	0	500	521	513	34	0	
3	0	0	0	0	0	505	519	514	30	0	
4	0	0	0	0	0	510	513	492	26	0	
5	0	0	0	0	0	505	513	479	25	0	
6	0	0	0	0	0	502	506	488	25	0	
7	0	0	0	0	3	504	503	504	30	0	
8	0	0	0	0	0	505	508	517	34	0	
9	0	0	0	0	0	504	513	528	36	0	
10	0	0	0	0	0	509	517	545	38	0	
11	0	0	0	0	0	508	517	553	37	0	
12	0	0	0	0	0	504	513	562	34	0	
13	0	0	0	0	0	506	511	556	30	0	
14	0	0	0	0	0	507	510	529	27	0	
15	0	0	0	0	2	505	510	491	26	0	
0	0	0	0	0	0	509	510	472	24	0	
1	0	0	0	0	0	509	508	475	27	0	
2	0	0	0	0	0	508	513	496	32	0	
3	0	0	0	0	0	503	515	514	38	0	
4	0	0	0	0	0	502	520	515	39	0	
5	0	0	0	0	0	500	519	506	37	0	
6	0	0	0	0	0	499	519	525	34	0	
7	0	0	0	0	3	503	515	537	29	0	
8	0	0	0	0	0	502	500	525	27	0	
9	0	0	0	0	0	504	494	505	30	0	
10	0	0	0	0	0	503	503	481	34	0	
11	0	0	0	0	0	505	518	474	36	0	
12	0	0	0	0	0	508	520	503	35	0	
13	0	0	0	0	0	508	518	526	29	0	
14	0	0	0	0	0	511	514	534	23	0	
15	0	0	0	0	2	515	507	521	20	0	
0	0	0	0	0	0	513	505	489	23	0	
1	0	0	0	0	0	507	512	453	27	0	
2	0	0	0	0	0	503	508	444	31	0	
3	0	0	0	0	0	496	507	467	33	0	
4	0	0	0	0	0	500	509	505	35	0	
5	0	0	0	0	0	505	512	534	35	0	
6	0	0	0	0	0	503	517	531	38	0	
7	0	0	0	0	3	497	518	546	43	0	
8	0	0	0	0	0	500	519	561	41	0	
9	0	0	0	0	0	503	519	581	36	0	
10	0	0	0	0	0	509	514	608	30	0	
11	0	0	0	0	0	512	513	606	25	0	
12	0	0	0	0	0	518	508	527	20	0	
13	0	0	0	0	0	516	504	414	18	0	
14	0	0	0	0	0	515	507	351	18	0	
15	0	0	0	0	3	511	508	331	24	0	
0	0	0	0	0	0	501	503	380	30	0	
1	0	0	0	0	0	499	507	451	34	0	
2	0	0	0	0	0	496	515	532	36	0	
3	0	0	0	0	0	500	518	574	36	0	
4	0	0	0	0	0	502	519	577	37	0	
5	0	0	0	0	0	502	518	559	36	0	
6	0	0	0	0	0	501	515	527	35	0	
7	0	0	0	0	2	503	516	511	34	0	
8	0	0	0	0	0	503	516	508	33	0	
9	0	0	0	0	0	503	512	518	32	0	
10	0	0	0	0	0	504	509	519	31	0	
11	0	0	0	0	0	505	511	524	32	0	
12	0	0	0	0	0	507	511	527	32	0	
13	0	0	0	0	0	502	512	529	31	0	
14	0	0	0	0	0	503	511	540	31	0	
15	0	0	0	0	2	507	508	536	31	0	
0	0	0	0	0	0	506	510	519	33	0	
1	0	0	0	0	0	507	515	508	33	0	
2	0	0	0	0	0	508	515	501	33	0	
3	0	0	0	0	0	511	516	504	32	0	
4	0	0	0	0	0	507	517	511	31	0	
5	0	0	0	0	0	505	518	513	31	0	
6	0	0	0	0	0	505	512	507	30	0	
7	0	0	0	0	2	502	509	510	30	0	
8	0	0	0	0	0	501	508	529	29	0	
9	0	0	0	0	0	510	504	525	29	0	
10	0	0	0	0	0	508	507	506	31	0	
11	0	0	0	0	0	503	510	483	33	0	
12	0	0	0	0	0	502	511	480	33	0	
13	0	0	0	0	0	502	511	487	33	0	
14	0	0	0	0	0	504	512	501	32	0	
15	0	0	0	0	2	507	508	521	31	0	
0	0	0	0	0	0	509	510	533	30	0	
1	0	0	0	0	0	511	515	529	31	0	
2	0	0	0	0	0	506	518	520	32	0	
3	0	0	0	0	0	502	519	496	33	0	
4	0	0	0	0	0	504	517	486	32	0	
5	0	0	0	0	0	502	511	506	31	0	
6	0	0	0	0	0	503	508	521	30	0	
7	0	0	0	0	1	504	516	518	29	0	
8	0	0	0	0	0	506	519	498	29	0	
9	0	0	0	0	0	506	513	483	29	0	
10	0	0	0	0	0	508	509	492	31	0	
11	0	0	0	0	0	508	509	501	32	0	
12	0	0	0	0	0	508	509	514	32	0	
13	0	0	0	0	0	506	506	517	32	0	
14	0	0	0	0	0	504	508	515	32	0	
15	0	0	0	0	1	507	510	515	32	0	
0	0	0	0	0	0	504	511	510	32	0	
1	0	0	0	0	0	506	512	511	31	0	
2	0	0	0	0	0	508	511	509	31	0	
3	0	0	0	0	0	511	515	510	31	0	
4	0	0	0	0	0	506	517	513	31	0	
5	0	0	0	0	0	503	517	516	32	0	
6	0	0	0	0	0	499	515	517	32	0	
7	0	0	0	0	2	502	512	514	32	0	
8	0	0	0	0	0	501	511	509	32	0	
9	0	0	0	0	0	499	505	508	31	0	
10	0	0	0	0	0	497	507	510	31	0	
11	0	0	0	0	0	498	508	519	32	0	
12	0	0	0	0	0	502	509	521	32	0	
13	0	0	0	0	0	505	510	507	31	0	
14	0	0	0	0	0	508	508	509	30	0	
15	0	0	0	0	2	510	510	510	31	0	
0	0	0	0	0	0	511	512	503	31	0	
1	0	0	0	0	0	511	513	503	31	0	
2	0	0	0	0	0	508	512	506	31	0	
3	0	0	0	0	0	505	514	494	31	0	
4	0	0	0	0	0	504	518	487	31	0	
5	0	0	0	0	0	503	517	499	32	0	
6	0	0	0	0	0	503	516	512	32	0	
7	0	0	0	0	3	504	511	514	32	0	
8	0	0	0	0	0	503	514	511	32	0	
9	0	0	0	0	0	503	511	514	31	0	
10	0	0	0	0	0	501	508	513	31	0	
11	0	0	0	0	0	502	507	513	31	0	
12	0	0	0	0	0	504	508	509	31	0	
13	0	0	0	0	0	504	508	508	31	0	
14	0	0	0	0	0	508	508	508	31	0	
15	0	0	0	0	3	508	510	504	31	0	
0	0	0	0	0	0	508	512	502	31	0	
1	0	0	0	0	0	507	515	501	32	0	
2	0	0	0	0	0	506	517	510	34	0	
3	0	0	0	0	0	504	520	531	35	0	
4	0	0	0	0	0	504	519	545	34	0	
5	0	0	0	0	0	506	515	542	32	0	
6	0	0	0	0	0	504	513	518	29	0	
7	0	0	0	0	2	508	516	487	28	0	
8	0	0	0	0	0	505	512	472	27	0	
9	0	0	0	0	0	504	512	491	27	0	
10	0	0	0	0	0	504	511	504	30	0	
11	0	0	0	0	0	507	512	508	31	0	
12	0	0	0	0	0	504	510	507	32	0	
13	0	0	0	0	0	504	508	502	32	0	
14	0	0	0	0	0	507	511	507	32	0	
15	0	0	0	0	2	508	509	522	32	0	
0	0	0	0	0	0	507	511	520	32	0	
1	0	0	0	0	0	508	510	508	32	0	
2	0	0	0	0	0	508	511	505	32	0	
3	0	0	0	0	0	507	512	515	32	0	
4	0	0	0	0	0	506	513	524	32	0	
5	0	0	0	0	0	505	515	517	32	0	
6	0	0	0	0	0	502	517	505	32	0	
7	0	0	0	0	2	502	515	500	32	0	
8	0	0	0	0	0	503	517	509	32	0	
9	0	0	0	0	0	504	513	514	32	0	
10	0	0	0	0	0	504	514	516	32	0	
11	0	0	0	0	0	504	510	508	32	0	
12	0	0	0	0	0	503	507	500	32	0	
13	0	0	0	0	0	502	504	502	32	0	
14	0	0	0	0	0	505	506	510	31	0	
15	0	0	0	0	2	507	503	512	30	0	
0	0	0	0	0	0	507	506	515	31	0	
1	0	0	0	0	0	508	508	519	31	0	
2	0	0	0	0	0	507	510	527	31	0	
3	0	0	0	0	0	506	514	518	30	0	
4	0	0	0	0	0	506	512	489	31	0	
5	0	0	0	0	0	504	516	486	31	0	
6	0	0	0	0	0	507	516	499	32	0	
7	0	0	0	0	3	504	518	512	32	0	
8	0	0	0	0	0	504	516	515	32	0	
9	0	0	0	0	0	502	517	518	33	0	
10	0	0	0	0	0	503	517	510	33	0	
11	0	0	0	0	0	500	515	502	33	0	
12	0	0	0	0	0	499	512	505	32	0	
13	0	0	0	0	0	504	508	515	30	0	
14	0	0	0	0	0	508	504	530	30	0	
15	0	0	0	0	2	510	508	528	31	0	
0	0	0	0	0	0	508	510	516	30	0	
1	0	0	0	0	0	508	509	495	30	0	
2	0	0	0	0	0	506	508	487	29	0	
3	0	0	0	0	0	507	510	496	30	0	
4	0	0	0	0	0	507	511	502	31	0	
5	0	0	0	0	0	505	516	498	32	0	
6	0	0	0	0	0	503	519	498	33	0	
7	0	0	0	0	2	503	519	501	33	0	
8	0	0	0	0	0	504	519	505	33	0	
9	0	0	0	0	0	502	513	512	32	0	
10	0	0	0	0	0	504	506	523	30	0	
11	0	0	0	0	0	505	508	536	31	0	
12	0	0	0	0	0	504	510	539	32	0	
13	0	0	0	0	0	507	511	534	33	0	
14	0	0	0	0	0	506	509	511	32	0	
15	0	0	0	0	1	508	510	492	31	0	
0	0	0	0	0	0	508	510	483	28	0	
1	0	0	0	0	0	508	509	478	27	0	
2	0	0	0	0	0	506	511	490	29	0	
3	0	0	0	0	0	503	512	496	31	0	
4	0	0	0	0	0	504	515	505	32	0	
5	0	0	0	0	0	503	513	511	32	0	
6	0	0	0	0	0	506	513	520	32	0	
7	0	0	0	0	1	506	514	527	32	0	
8	0	0	0	0	0	504	514	527	32	0	
9	0	0	0	0	0	501	515	517	32	0	
10	0	0	0	0	0	504	514	513	32	0	
11	0	0	0	0	0	504	515	509	32	0	
12	0	0	0	0	0	504	515	508	32	0	
13	0	0	0	0	0	506	513	510	31	0	
14	0	0	0	0	0	504	510	507	31	0	
15	0	0	0	0	1	504	508	505	31	0	
0	0	0	0	0	0	506	508	504	31	0	
1	0	0	0	0	0	508	509	505	31	0	
2	0	0	0	0	0	506	510	504	31	0	
3	0	0	0	0	0	505	511	507	32	0	
4	0	0	0	0	0	505	509	510	32	0	
5	0	0	0	0	0	505	511	509	32	0	
6	0	0	0	0	0	506	510	514	32	0	
7	0	0	0	0	2	508	516	519	32	0	
8	0	0	0	0	0	509	518	521	31	0	
9	0	0	0	0	0	506	516	514	30	0	
10	0	0	0	0	0	508	515	508	30	0	
11	0	0	0	0	0	504	515	496	31	0	
12	0	0	0	0	0	504	514	495	31	0	
13	0	0	0	0	0	503	513	500	32	0	
14	0	0	0	0	0	502	512	506	32	0	
15	0	0	0	0	2	503	509	511	32	0	
0	0	0	0	0	0	501	507	514	32	0	
1	0	0	0	0	0	502	508	515	31	0	
2	0	0	0	0	0	503	508	512	31	0	
3	0	0	0	0	0	506	508	508	31	0	
4	0	0	0	0	0	507	510	509	31	0	
5	0	0	0	0	0	509	511	508	31	0	
6	0	0	0	0	0	505	512	510	32	0	
7	0	0	0	0	2	508	513	508	31	0	
8	0	0	0	0	0	506	516	507	32	0	
9	0	0	0	0	0	505	518	508	32	0	
10	0	0	0	0	0	506	519	516	32	0	
11	0	0	0	0	0	504	515	518	32	0	
12	0	0	0	0	0	504	515	516	31	0	
13	0	0	0	0	0	503	512	504	31	0	
14	0	0	0	0	0	504	510	502	31	0	
15	0	0	0	0	2	506	510	500	31	0	
0	0	0	0	0	0	507	505	502	31	0	
1	0	0	0	0	0	504	508	504	31	0	
2	0	0	0	0	0	506	507	508	31	0	
3	0	0	0	0	0	507	511	513	31	0	
4	0	0	0	0	0	507	511	514	31	0	
5	0	0	0	0	0	506	510	515	31	0	
6	0	0	0	0	0	508	510	509	31	0	
7	0	0	0	0	3	504	512	508	31	0	
8	0	0	0	0	0	504	516	508	32	0	
9	0	0	0	0	0	505	516	510	32	0	
10	0	0	0	0	0	506	515	515	32	0	
11	0	0	0	0	0	505	518	512	32	0	
12	0	0	0	0	0	504	516	508	32	0	
13	0	0	0	0	0	500	514	505	31	0	
14	0	0	0	0	0	502	511	507	31	0	
15	0	0	0	0	2	503	510	510	32	0	
0	0	0	0	0	0	504	511	512	32	0	
1	0	0	0	0	0	504	508	508	32	0	
2	0	0	0	0	0	504	507	505	31	0	
3	0	0	0	0	0	504	508	508	31	0	
4	0	0	0	0	0	508	512	519	31	0	
5	0	0	0	0	0	507	514	526	31	0	
6	0	0	0	0	0	508	514	513	31	0	
7	0	0	0	0	2	508	512	497	30	0	
8	0	0	0	0	0	506	512	495	30	0	
9	0	0	0	0	0	507	512	494	30	0	
10	0	0	0	0	0	506	512	497	31	0	
11	0	0	0	0	0	504	513	503	31	0	
12	0	0	0	0	0	504	515	508	32	0	
13	0	0	0	0	0	504	515	512	32	0	
14	0	0	0	0	0	500	511	518	32	0	
15	0	0	0	0	2	503	509	518	32	0	
0	0	0	0	0	0	504	512	522	32	0	
1	0	0	0	0	0	506	511	517	31	0	
2	0	0	0	0	0	508	509	509	31	0	
3	0	0	0	0	0	508	509	503	31	0	
4	0	0	0	0	0	508	508	501	31	0	
5	0	0	0	0	0	507	511	501	31	0	
6	0	0	0	0	0	508	512	504	31	0	
7	0	0	0	0	2	508	512	504	31	0	
8	0	0	0	0	0	510	513	506	31	0	
9	0	0	0	0	0	507	513	511	31	0	
10	0	0	0	0	0	505	515	513	31	0	
11	0	0	0	0	0	503	515	514	32	0	
12	0	0	0	0	0	502	517	516	32	0	
13	0	0	0	0	0	500	512	519	32	0	
14	0	0	0	0	0	500	514	516	32	0	
15	0	0	0	0	3	501	511	515	32	0	
0	0	0	0	0	0	501	511	515	32	0	
1	0	0	0	0	0	504	512	513	32	0	
2	0	0	0	0	0	505	509	513	31	0	
3	0	0	0	0	0	504	507	510	31	0	
4	0	0	0	0	0	506	508	507	31	0	
5	0	0	0	0	0	508	510	509	31	0	
6	0	0	0	0	0	507	509	509	31	0	
7	0	0	0	0	2	508	510	507	31	0	
8	0	0	0	0	0	506	511	501	31	0	
9	0	0	0	0	0	505	512	503	31	0	
10	0	0	0	0	0	507	515	505	31	0	
11	0	0	0	0	0	504	515	505	31	0	
12	0	0	0	0	0	504	515	511	31	0	
13	0	0	0	0	0	507	517	509	31	0	
14	0	0	0	0	0	504	515	511	31	0	
15	0	0	0	0	1	505	512	512	31	0	
0	0	0	0	0	0	503	513	510	32	0	
1	0	0	0	0	0	505	512	508	32	0	
2	0	0	0	0	0	504	510	508	32	0	
3	0	0	0	0	0	506	508	507	31	0	
4	0	0	0	0	0	506	508	508	31	0	
5	0	0	0	0	0	507	511	503	31	0	
6	0	0	0	0	0	505	513	502	31	0	
7	0	0	0	0	1	505	510	502	31	0	
8	0	0	0	0	0	508	511	505	31	0	
9	0	0	0	0	0	505	511	511	31	0	
10	0	0	0	0	0	506	513	512	31	0	
11	0	0	0	0	0	506	514	515	31	0	
12	0	0	0	0	0	503	516	515	31	0	
13	0	0	0	0	0	504	516	513	32	0	
14	0	0	0	0	0	504	515	508	31	0	
15	0	0	0	0	1	502	515	508	31	0	
0	0	0	0	0	0	502	512	507	31	0	
1	0	0	0	0	0	504	513	506	31	0	
2	0	0	0	0	0	505	511	509	31	0	
3	0	0	0	0	0	504	509	509	31	0	
4	0	0	0	0	0	504	507	510	32	0	
5	0	0	0	0	0	504	508	512	32	0	
6	0	0	0	0	0	507	507	510	32	0	
7	0	0	0	0	3	504	510	512	31	0	
8	0	0	0	0	0	507	510	514	31	0	
9	0	0	0	0	0	508	512	516	31	0	
10	0	0	0	0	0	506	510	507	31	0	
11	0	0	0	0	0	505	513	504	31	0	
12	0	0	0	0	0	504	514	506	32	0	
13	0	0	0	0	0	504	518	507	32	0	
14	0	0	0	0	0	503	517	515	32	0	
15	0	0	0	0	2	504	515	515	32	0	
0	0	0	0	0	0	504	512	510	31	0	
1	0	0	0	0	0	505	511	508	31	0	
2	0	0	0	0	0	503	511	510	31	0	
3	0	0	0	0	0	503	510	512	31	0	
4	0	0	0	0	0	503	508	509	31	0	
5	0	0	0	0	0	505	510	508	31	0	
6	0	0	0	0	0	507	508	505	31	0	
7	0	0	0	0	3	508	511	506	31	0	
8	0	0	0	0	0	509	511	503	31	0	
9	0	0	0	0	0	509	512	507	31	0	
10	0	0	0	0	0	508	514	508	31	0	
11	0	0	0	0	0	505	512	507	31	0	
12	0	0	0	0	0	505	516	508	31	0	
13	0	0	0	0	0	502	515	506	31	0	
14	0	0	0	0	0	502	515	507	32	0	
15	0	0	0	0	2	503	515	509	32	0	
0	0	0	0	0	0	503	514	511	32	0	
1	0	0	0	0	0	502	512	514	32	0	
2	0	0	0	0	0	506	511	515	32	0	
3	0	0	0	0	0	504	513	507	32	0	
4	0	0	0	0	0	507	513	508	32	0	
5	0	0	0	0	0	506	511	511	31	0	
6	0	0	0	0	0	506	508	509	31	0	
7	0	0	0	0	2	505	506	504	30	0	
8	0	0	0	0	0	508	508	505	30	0	
9	0	0	0	0	0	506	507	508	31	0	
10	0	0	0	0	0	506	510	514	31	0	
11	0	0	0	0	0	505	510	513	31	0	
12	0	0	0	0	0	504	515	512	31	0	
13	0	0	0	0	0	503	511	510	31	0	
14	0	0	0	0	0	504	517	509	31	0	
15	0	0	0	0	2	506	517	510	32	0	
0	0	0	0	0	0	503	517	507	32	0	
1	0	0	0	0	0	504	514	508	32	0	
2	0	0	0	0	0	506	515	507	32	0	
3	0	0	0	0	0	505	512	508	32	0	
4	0	0	0	0	0	504	510	508	32	0	
5	0	0	0	0	0	505	509	509	32	0	
6	0	0	0	0	0	505	509	506	31	0	
7	0	0	0	0	2	505	508	509	31	0	
8	0	0	0	0	0	507	510	511	31	0	
9	0	0	0	0	0	508	511	512	31	0	
10	0	0	0	0	0	507	510	511	31	0	
11	0	0	0	0	0	507	512	509	31	0	
12	0	0	0	0	0	504	514	510	31	0	
13	0	0	0	0	0	506	512	512	32	0	
14	0	0	0	0	0	507	512	510	32	0	
15	0	0	0	0	2	505	517	508	31	0	
0	0	0	0	0	0	506	518	506	31	0	
1	0	0	0	0	0	505	515	508	31	0	
2	0	0	0	0	0	504	513	506	31	0	
3	0	0	0	0	0	501	512	509	31	0	
4	0	0	0	0	0	502	512	512	32	0	
5	0	0	0	0	0	504	510	509	31	0	
6	0	0	0	0	0	504	508	510	31	0	
7	0	0	0	0	2	504	509	509	31	0	
8	0	0	0	0	0	505	511	508	31	0	
9	0	0	0	0	0	505	510	509	31	0	
10	0	0	0	0	0	508	509	506	31	0	
11	0	0	0	0	0	510	513	508	31	0	
12	0	0	0	0	0	508	512	510	31	0	
13	0	0	0	0	0	504	513	511	31	0	
14	0	0	0	0	0	503	513	512	31	0	
15	0	0	0	0	2	504	516	514	31	0	
0	0	0	0	0	0	504	514	514	31	0	
1	0	0	0	0	0	504	513	515	31	0	
2	0	0	0	0	0	503	512	508	32	0	
3	0	0	0	0	0	502	514	506	32	0	
4	0	0	0	0	0	505	513	506	32	0	
5	0	0	0	0	0	504	513	507	31	0	
6	0	0	0	0	0	505	511	511	31	0	
7	0	0	0	0	1	505	509	511	31	0	
8	0	0	0	0	0	508	509	511	31	0	
9	0	0	0	0	0	507	511	508	31	0	
10	0	0	0	0	0	504	508	508	31	0	
11	0	0	0	0	0	505	507	507	31	0	
12	0	0	0	0	0	503	510	506	31	0	
13	0	0	0	0	0	505	511	507	31	0	
14	0	0	0	0	0	506	513	511	31	0	
15	0	0	0	0	1	506	515	510	31	0	
0	0	0	0	0	0	507	515	509	31	0	
1	0	0	0	0	0	510	515	507	31	0	
2	0	0	0	0	0	508	513	507	32	0	
3	0	0	0	0	0	507	515	505	32	0	
4	0	0	0	0	0	506	512	507	32	0	
5	0	0	0	0	0	504	511	508	31	0	
6	0	0	0	0	0	502	510	508	31	0	
7	0	0	0	0	1	503	511	507	31	0	
8	0	0	0	0	0	502	508	506	31	0	
9	0	0	0	0	0	504	509	507	31	0	
10	0	0	0	0	0	503	511	508	31	0	
11	0	0	0	0	0	503	508	511	31	0	
12	0	0	0	0	0	504	512	512	31	0	
13	0	0	0	0	0	503	513	515	31	0	
14	0	0	0	0	0	505	511	514	31	0	
15	0	0	0	0	2	508	514	513	32	0	
0	0	0	0	0	0	506	514	513	32	0	
1	0	0	0	0	0	505	516	514	32	0	
2	0	0	0	0	0	502	518	517	32	0	
3	0	0	0	0	0	504	516	512	31	0	
4	0	0	0	0	0	507	514	508	31	0	
5	0	0	0	0	0	504	512	505	31	0	
6	0	0	0	0	0	505	512	507	31	0	
7	0	0	0	0	2	505	511	508	31	0	
8	0	0	0	0	0	505	508	508	31	0	
9	0	0	0	0	0	506	508	511	31	0	
10	0	0	0	0	0	508	507	507	31	0	
11	0	0	0	0	0	506	509	504	31	0	
12	0	0	0	0	0	504	510	504	31	0	
13	0	0	0	0	0	505	510	506	31	0	
14	0	0	0	0	0	507	511	507	32	0	
15	0	0	0	0	3	508	512	507	31	0	
0	0	0	0	0	0	507	515	511	32	0	
1	0	0	0	0	0	504	515	509	31	0	
2	0	0	0	0	0	503	515	507	31	0	
3	0	0	0	0	0	502	517	510	31	0	
4	0	0	0	0	0	504	515	509	31	0	
5	0	0	0	0	0	504	514	513	32	0	
6	0	0	0	0	0	501	511	512	31	0	
7	0	0	0	0	2	502	508	511	31	0	
8	0	0	0	0	0	504	508	510	31	0	
9	0	0	0	0	0	504	509	510	31	0	
10	0	0	0	0	0	505	508	510	31	0	
11	0	0	0	0	0	507	509	510	31	0	
12	0	0	0	0	0	505	511	509	31	0	
13	0	0	0	0	0	508	510	505	31	0	
14	0	0	0	0	0	508	510	504	31	0	
15	0	0	0	0	2	509	511	503	31	0	
0	0	0	0	0	0	505	515	506	31	0	
1	0	0	0	0	0	505	516	510	31	0	
2	0	0	0	0	0	504	517	513	32	0	
3	0	0	0	0	0	503	515	513	31	0	
4	0	0	0	0	0	504	515	511	32	0	
5	0	0	0	0	0	508	513	508	32	0	
6	0	0	0	0	0	505	512	508	32	0	
7	0	0	0	0	2	506	511	509	32	0	
8	0	0	0	0	0	504	511	513	32	0	
9	0	0	0	0	0	504	512	510	32	0	
10	0	0	0	0	0	504	511	510	31	0	
11	0	0	0	0	0	503	508	514	31	0	
12	0	0	0	0	0	502	508	510	31	0	
13	0	0	0	0	0	504	510	511	31	0	
14	0	0	0	0	0	505	512	506	31	0	
15	0	0	0	0	2	506	513	507	31	0	
0	0	0	0	0	0	508	514	508	31	0	
1	0	0	0	0	0	506	515	509	31	0	
2	0	0	0	0	0	504	515	508	31	0	
3	0	0	0	0	0	506	516	508	31	0	
4	0	0	0	0	0	505	516	508	31	0	
5	0	0	0	0	0	504	515	508	32	0	
6	0	0	0	0	0	505	515	509	31	0	
7	0	0	0	0	3	505	514	511	31	0	
8	0	0	0	0	0	505	511	514	32	0	
9	0	0	0	0	0	504	507	508	31	0	
10	0	0	0	0	0	504	509	508	31	0	
11	0	0	0	0	0	505	506	507	31	0	
12	0	0	0	0	0	507	508	509	31	0	
13	0	0	0	0	0	508	511	507	31	0	
14	0	0	0	0	0	508	513	508	31	0	
15	0	0	0	0	2	508	514	509	31	0	
0	0	0	0	0	0	505	515	512	31	0	
1	0	0	0	0	0	505	512	509	31	0	
2	0	0	0	0	0	504	513	508	31	0	
3	0	0	0	0	0	506	515	507	31	0	
4	0	0	0	0	0	502	514	508	31	0	
5	0	0	0	0	0	504	513	510	32	0	
6	0	0	0	0	0	503	512	512	32	0	
7	0	0	0	0	2	504	513	511	32	0	
8	0	0	0	0	0	504	513	511	32	0	
9	0	0	0	0	0	506	506	511	32	0	
10	0	0	0	0	0	506	510	510	32	0	
11	0	0	0	0	0	507	508	508	31	0	
12	0	0	0	0	0	507	509	505	31	0	
13	0	0	0	0	0	508	508	505	31	0	
14	0	0	0	0	0	508	509	504	31	0	
15	0	0	0	0	2	508	512	508	31	0	
0	0	0	0	0	0	506	511	509	31	0	
1	0	0	0	0	0	504	512	510	31	0	
2	0	0	0	0	0	503	516	511	31	0	
3	0	0	0	0	0	503	515	510	31	0	
4	0	0	0	0	0	502	515	508	31	0	
5	0	0	0	0	0	502	518	512	31	0	
6	0	0	0	0	0	503	515	512	32	0	
7	0	0	0	0	1	501	515	513	31	0	
8	0	0	0	0	0	502	510	513	32	0	
9	0	0	0	0	0	502	510	516	32	0	
10	0	0	0	0	0	502	511	511	31	0	
11	0	0	0	0	0	504	510	510	31	0	
12	0	0	0	0	0	507	507	509	31	0	
13	0	0	0	0	0	507	510	507	31	0	
14	0	0	0	0	0	508	511	506	31	0	
15	0	0	0	0	1	508	510	507	31	0	
0	0	0	0	0	0	508	514	504	31	0	
1	0	0	0	0	0	508	513	506	31	0	
2	0	0	0	0	0	508	511	507	31	0	
3	0	0	0	0	0	504	512	510	31	0	
4	0	0	0	0	0	504	515	512	32	0	
5	0	0	0	0	0	504	514	511	31	0	
6	0	0	0	0	0	502	514	511	32	0	
7	0	0	0	0	1	502	514	514	32	0	
8	0	0	0	0	0	504	513	512	32	0	
9	0	0	0	0	0	503	513	512	32	0	
10	0	0	0	0	0	504	513	510	32	0	
11	0	0	0	0	0	507	511	510	32	0	
12	0	0	0	0	0	507	512	506	31	0	
13	0	0	0	0	0	508	509	508	31	0	
14	0	0	0	0	0	512	509	506	31	0	
15	0	0	0	0	2	510	511	504	31	0	
0	0	0	0	0	0	507	508	506	31	0	
1	0	0	0	0	0	505	508	507	31	0	
2	0	0	0	0	0	504	511	508	31	0	
3	0	0	0	0	0	502	512	510	31	0	
4	0	0	0	0	0	503	512	508	31	0	
5	0	0	0	0	0	505	515	510	31	0	
6	0	0	0	0	0	505	517	508	31	0	
7	0	0	0	0	2	507	515	512	31	0	
8	0	0	0	0	0	505	515	511	31	0	
9	0	0	0	0	0	504	512	512	32	0	
10	0	0	0	0	0	503	513	510	32	0	
11	0	0	0	0	0	504	512	509	31	0	
12	0	0	0	0	0	505	511	511	31	0	
13	0	0	0	0	0	506	510	505	31	0	
14	0	0	0	0	0	507	510	504	31	0	
15	0	0	0	0	3	507	512	501	31	0	
0	0	0	0	0	0	508	509	505	31	0	
1	0	0	0	0	0	505	510	511	31	0	
2	0	0	0	0	0	504	511	513	31	0	
3	0	0	0	0	0	505	511	511	31	0	
4	0	0	0	0	0	507	512	512	31	0	
5	0	0	0	0	0	505	513	511	31	0	
6	0	0	0	0	0	504	512	509	32	0	
7	0	0	0	0	2	504	513	509	32	0	
8	0	0	0	0	0	507	514	512	32	0	
9	0	0	0	0	0	504	515	512	32	0	
10	0	0	0	0	0	504	515	509	31	0	
11	0	0	0	0	0	504	513	511	31	0	
12	0	0	0	0	0	501	512	510	31	0	
13	0	0	0	0	0	504	510	509	31	0	
14	0	0	0	0	0	505	507	510	31	0	
15	0	0	0	0	2	504	508	508	31	0	
0	0	0	0	0	0	506	507	508	31	0	
1	0	0	0	0	0	504	508	510	31	0	
2	0	0	0	0	0	507	512	510	31	0	
3	0	0	0	0	0	507	511	507	31	0	
4	0	0	0	0	0	507	513	507	31	0	
5	0	0	0	0	0	507	514	508	31	0	
6	0	0	0	0	0	505	512	506	31	0	
7	0	0	0	0	2	505	515	508	32	0	
8	0	0	0	0	0	504	515	510	32	0	
9	0	0	0	0	0	503	514	511	32	0	
10	0	0	0	0	0	504	515	510	32	0	
11	0	0	0	0	0	504	513	512	32	0	
12	0	0	0	0	0	506	513	509	31	0	
13	0	0	0	0	0	505	510	510	32	0	
14	0	0	0	0	0	505	507	508	31	0	
15	0	0	0	0	2	505	509	508	31	0	
0	0	0	0	0	0	506	507	504	31	0	
1	0	0	0	0	0	504	508	506	31	0	
2	0	0	0	0	0	504	511	508	31	0	
3	0	0	0	0	0	503	511	512	31	0	
4	0	0	0	0	0	505	514	512	31	0	
5	0	0	0	0	0	508	514	514	31	0	
6	0	0	0	0	0	506	517	511	31	0	
7	0	0	0	0	2	505	518	509	31	0	
8	0	0	0	0	0	505	516	509	31	0	
9	0	0	0	0	0	504	516	512	31	0	
10	0	0	0	0	0	506	514	513	32	0	
11	0	0	0	0	0	505	513	510	31	0	
12	0	0	0	0	0	503	512	510	31	0	
13	0	0	0	0	0	505	510	509	32	0	
14	0	0	0	0	0	506	510	510	31	0	
15	0	0	0	0	2	507	508	507	31	0	
0	0	0	0	0	0	507	508	506	31	0	
1	0	0	0	0	0	505	508	504	31	0	
2	0	0	0	0	0	506	508	506	31	0	
3	0	0	0	0	0	505	509	511	31	0	
4	0	0	0	0	0	507	512	508	31	0	
5	0	0	0	0	0	506	512	510	31	0	
6	0	0	0	0	0	505	512	509	31	0	
7	0	0	0	0	3	504	516	509	31	0	
8	0	0	0	0	0	505	515	508	31	0	
9	0	0	0	0	0	504	515	508	31	0	
10	0	0	0	0	0	503	515	510	31	0	
11	0	0	0	0	0	504	513	510	32	0	
12	0	0	0	0	0	504	512	509	31	0	
13	0	0	0	0	0	502	512	512	31	0	
14	0	0	0	0	0	502	511	515	31	0	
15	0	0	0	0	2	502	509	511	31	0	
0	0	0	0	0	0	504	511	509	31	0	
1	0	0	0	0	0	505	509	507	31	0	
2	0	0	0	0	0	508	511	508	31	0	
3	0	0	0	0	0	507	507	507	31	0	
4	0	0	0	0	0	508	512	508	31	0	
5	0	0	0	0	0	507	510	511	31	0	
6	0	0	0	0	0	507	511	511	31	0	
7	0	0	0	0	1	506	514	510	31	0	
8	0	0	0	0	0	504	515	509	32	0	
9	0	0	0	0	0	505	516	509	31	0	
10	0	0	0	0	0	504	515	508	32	0	
11	0	0	0	0	0	505	515	507	32	0	
12	0	0	0	0	0	505	516	507	32	0	
13	0	0	0	0	0	504	513	509	32	0	
14	0	0	0	0	0	505	513	512	31	0	
15	0	0	0	0	1	506	509	511	31	0	
0	0	0	0	0	0	505	509	507	31	0	
1	0	0	0	0	0	505	508	507	31	0	
2	0	0	0	0	0	503	508	511	31	0	
3	0	0	0	0	0	505	510	509	31	0	
4	0	0	0	0	0	507	509	510	31	0	
5	0	0	0	0	0	507	510	511	31	0	
6	0	0	0	0	0	505	510	512	31	0	
7	0	0	0	0	1	505	512	511	31	0	
8	0	0	0	0	0	504	514	509	31	0	
9	0	0	0	0	0	505	514	508	31	0	
10	0	0	0	0	0	505	516	508	31	0	
11	0	0	0	0	0	506	515	509	32	0	
12	0	0	0	0	0	505	516	508	31	0	
13	0	0	0	0	0	504	513	507	31	0	
14	0	0	0	0	0	505	512	507	31	0	
15	0	0	0	0	2	504	512	508	31	0	
0	0	0	0	0	0	503	509	505	31	0	
1	0	0	0	0	0	504	509	508	31	0	
2	0	0	0	0	0	507	509	511	31	0	
3	0	0	0	0	0	505	510	508	31	0	
4	0	0	0	0	0	507	512	509	31	0	
5	0	0	0	0	0	506	510	508	31	0	
6	0	0	0	0	0	506	510	510	31	0	
7	0	0	0	0	3	507	513	513	31	0	
8	0	0	0	0	0	505	513	507	31	0	
9	0	0	0	0	0	504	512	509	31	0	
10	0	0	0	0	0	503	513	511	31	0	
11	0	0	0	0	0	501	515	510	31	0	
12	0	0	0	0	0	501	514	511	31	0	
13	0	0	0	0	0	502	515	511	31	0	
14	0	0	0	0	0	500	515	511	32	0	
15	0	0	0	0	3	505	512	508	32	0	
0	0	0	0	0	0	507	509	510	31	0	
1	0	0	0	0	0	508	510	506	31	0	
2	0	0	0	0	0	508	509	507	31	0	
3	0	0	0	0	0	510	508	508	31	0	
4	0	0	0	0	0	507	511	507	31	0	
5	0	0	0	0	0	506	511	504	31	0	
6	0	0	0	0	0	507	511	509	31	0	
7	0	0	0	0	3	505	513	507	31	0	
8	0	0	0	0	0	505	512	508	31	0	
9	0	0	0	0	0	505	515	508	31	0	
10	0	0	0	0	0	503	515	513	32	0	
11	0	0	0	0	0	503	516	513	32	0	
12	0	0	0	0	0	504	516	510	32	0	
13	0	0	0	0	0	504	513	508	32	0	
14	0	0	0	0	0	503	511	507	32	0	
15	0	0	0	0	3	501	511	508	32	0	
0	0	0	0	0	0	503	512	511	32	0	
1	0	0	0	0	0	504	508	512	32	0	
2	0	0	0	0	0	504	509	511	31	0	
3	0	0	0	0	0	506	508	508	31	0	
4	0	0	0	0	0	507	509	510	31	0	
5	0	0	0	0	0	509	511	510	31	0	
6	0	0	0	0	0	508	511	510	31	0	
7	0	0	0	0	2	508	512	508	31	0	
8	0	0	0	0	0	507	512	508	31	0	
9	0	0	0	0	0	508	513	507	31	0	
10	0	0	0	0	0	507	513	507	31	0	
11	0	0	0	0	0	504	515	507	31	0	
12	0	0	0	0	0	501	515	508	32	0	
13	0	0	0	0	0	503	515	509	31	0	
14	0	0	0	0	0	504	514	510	31	0	
15	0	0	0	0	2	505	513	511	31	0	
0	0	0	0	0	0	504	512	512	31	0	
1	0	0	0	0	0	502	511	510	31	0	
2	0	0	0	0	0	502	509	510	31	0	
3	0	0	0	0	0	504	507	509	31	0	
4	0	0	0	0	0	505	506	508	31	0	
5	0	0	0	0	0	508	507	507	31	0	
6	0	0	0	0	0	508	508	508	31	0	
7	0	0	0	0	2	507	513	507	31	0	
8	0	0	0	0	0	507	513	510	31	0	
9	0	0	0	0	0	507	512	511	31	0	
10	0	0	0	0	0	507	513	511	31	0	
11	0	0	0	0	0	504	517	507	31	0	
12	0	0	0	0	0	504	516	509	31	0	
13	0	0	0	0	0	504	516	510	32	0	
14	0	0	0	0	0	503	514	509	31	0	
15	0	0	0	0	3	504	513	507	31	0	
0	0	0	0	0	0	503	513	510	31	0	
1	0	0	0	0	0	504	513	510	31	0	
2	0	0	0	0	0	504	511	511	31	0	
3	0	0	0	0	0	505	510	507	31	0	
4	0	0	0	0	0	505	508	508	31	0	
5	0	0	0	0	0	508	505	508	31	0	
6	0	0	0	0	0	506	507	511	31	0	
7	0	0	0	0	3	507	508	511	31	0	
8	0	0	0	0	0	507	511	506	31	0	
9	0	0	0	0	0	505	512	505	31	0	
10	0	0	0	0	0	506	516	510	31	0	
11	0	0	0	0	0	505	514	511	31	0	
12	0	0	0	0	0	504	515	507	31	0	
13	0	0	0	0	0	505	517	508	31	0	
14	0	0	0	0	0	505	516	512	31	0	
15	0	0	0	0	1	505	513	515	31	0	
0	0	0	0	0	0	505	513	510	31	0	
1	0	0	0	0	0	504	511	511	31	0	
2	0	0	0	0	0	503	512	512	31	0	
3	0	0	0	0	0	503	510	513	32	0	
4	0	0	0	0	0	503	508	514	31	0	
5	0	0	0	0	0	504	507	508	31	0	
6	0	0	0	0	0	508	509	507	31	0	
7	0	0	0	0	1	509	510	506	31	0	
8	0	0	0	0	0	508	513	508	31	0	
9	0	0	0	0	0	507	512	507	31	0	
10	0	0	0	0	0	508	514	505	31	0	
11	0	0	0	0	0	507	515	505	31	0	
12	0	0	0	0	0	505	517	506	31	0	
13	0	0	0	0	0	505	515	509	32	0	
14	0	0	0	0	0	503	517	515	31	0	
15	0	0	0	0	1	502	516	514	31	0	
0	0	0	0	0	0	502	514	512	32	0	
1	0	0	0	0	0	505	513	508	31	0	
2	0	0	0	0	0	506	510	508	31	0	
3	0	0	0	0	0	505	511	510	31	0	
4	0	0	0	0	0	507	508	505	31	0	
5	0	0	0	0	0	507	507	505	31	0	
6	0	0	0	0	0	506	508	505	31	0	
7	0	0	0	0	2	504	509	505	31	0	
8	0	0	0	0	0	506	509	504	31	0	
9	0	0	0	0	0	505	512	508	31	0	
10	0	0	0	0	0	504	512	511	31	0	
11	0	0	0	0	0	504	512	513	31	0	
12	0	0	0	0	0	504	514	511	31	0	
13	0	0	0	0	0	503	518	510	31	0	
14	0	0	0	0	0	502	519	511	32	0	
15	0	0	0	0	3	499	515	511	32	0	
0	0	0	0	0	0	502	513	512	32	0	
1	0	0	0	0	0	503	515	515	32	0	
2	0	0	0	0	0	503	512	510	32	0	
3	0	0	0	0	0	504	511	508	32	0	
4	0	0	0	0	0	505	510	508	31	0	
5	0	0	0	0	0	506	506	509	31	0	
6	0	0	0	0	0	507	507	509	31	0	
7	0	0	0	0	2	511	509	508	31	0	
8	0	0	0	0	0	511	509	507	31	0	
9	0	0	0	0	0	508	511	508	31	0	
10	0	0	0	0	0	505	510	510	32	0	
11	0	0	0	0	0	507	512	508	31	0	
12	0	0	0	0	0	504	512	507	31	0	
13	0	0	0	0	0	502	515	507	31	0	
14	0	0	0	0	0	504	515	508	31	0	
15	0	0	0	0	3	504	517	510	31	0	
0	0	0	0	0	0	504	519	513	32	0	
1	0	0	0	0	0	504	514	511	32	0	
2	0	0	0	0	0	505	514	512	32	0	
3	0	0	0	0	0	507	510	511	31	0	
4	0	0	0	0	0	504	508	508	32	0	
5	0	0	0	0	0	505	511	510	31	0	
6	0	0	0	0	0	508	510	508	31	0	
7	0	0	0	0	2	509	508	510	31	0	
8	0	0	0	0	0	510	510	508	31	0	
9	0	0	0	0	0	508	511	507	31	0	
10	0	0	0	0	0	503	511	506	31	0	
11	0	0	0	0	0	506	509	507	31	0	
12	0	0	0	0	0	504	513	505	31	0	
13	0	0	0	0	0	505	515	507	31	0	
14	0	0	0	0	0	506	516	511	31	0	
15	0	0	0	0	2	504	516	507	31	0	
0	0	0	0	0	0	504	517	508	32	0	
1	0	0	0	0	0	504	515	509	32	0	
2	0	0	0	0	0	502	513	513	32	0	
3	0	0	0	0	0	501	513	515	32	0	
4	0	0	0	0	0	502	510	513	32	0	
5	0	0	0	0	0	502	511	511	32	0	
6	0	0	0	0	0	505	511	509	32	0	
7	0	0	0	0	3	505	510	509	31	0	
8	0	0	0	0	0	509	512	510	31	0	
9	0	0	0	0	0	508	509	509	31	0	
10	0	0	0	0	0	507	511	508	31	0	
11	0	0	0	0	0	508	510	503	31	0	
12	0	0	0	0	0	507	514	504	31	0	
13	0	0	0	0	0	508	511	505	31	0	
14	0	0	0	0	0	504	513	506	31	0	
15	0	0	0	0	2	503	515	509	31	0	
0	0	0	0	0	0	500	518	510	31	0	
1	0	0	0	0	0	500	513	511	31	0	
2	0	0	0	0	0	501	513	510	32	0	
3	0	0	0	0	0	502	515	509	31	0	
4	0	0	0	0	0	503	512	513	31	0	
5	0	0	0	0	0	503	512	513	32	0	
6	0	0	0	0	0	505	509	511	31	0	
7	0	0	0	0	2	505	508	509	31	0	
8	0	0	0	0	0	508	509	508	31	0	
9	0	0	0	0	0	507	507	507	31	0	
10	0	0	0	0	0	510	508	508	31	0	
11	0	0	0	0	0	510	509	507	31	0	
12	0	0	0	0	0	508	511	508	31	0	
13	0	0	0	0	0	508	512	508	31	0	
14	0	0	0	0	0	509	513	510	31	0	
15	0	0	0	0	2	504	514	513	31	0	
0	0	0	0	0	0	502	515	511	31	0	
1	0	0	0	0	0	503	517	512	31	0	
2	0	0	0	0	0	504	515	509	32	0	
3	0	0	0	0	0	503	512	509	32	0	
4	0	0	0	0	0	503	512	509	32	0	
5	0	0	0	0	0	504	511	510	32	0	
6	0	0	0	0	0	504	510	511	32	0	
7	0	0	0	0	2	505	513	508	31	0	
8	0	0	0	0	0	507	509	507	31	0	
9	0	0	0	0	0	507	512	505	31	0	
10	0	0	0	0	0	508	508	506	31	0	
11	0	0	0	0	0	506	510	508	31	0	
12	0	0	0	0	0	508	510	511	31	0	
13	0	0	0	0	0	506	512	509	31	0	
14	0	0	0	0	0	505	510	509	31	0	
15	0	0	0	0	1	505	511	512	31	0	
0	0	0	0	0	0	502	514	511	31	0	
1	0	0	0	0	0	504	515	511	31	0	
2	0	0	0	0	0	501	515	507	31	0	
3	0	0	0	0	0	502	515	507	32	0	
4	0	0	0	0	0	505	515	512	32	0	
5	0	0	0	0	0	504	515	511	32	0	
6	0	0	0	0	0	504	512	510	32	0	
7	0	0	0	0	1	504	512	512	32	0	
8	0	0	0	0	0	505	512	508	31	0	
9	0	0	0	0	0	504	510	508	31	0	
10	0	0	0	0	0	506	509	508	31	0	
11	0	0	0	0	0	507	510	508	31	0	
12	0	0	0	0	0	508	512	508	31	0	
13	0	0	0	0	0	505	511	507	31	0	
14	0	0	0	0	0	506	511	510	31	0	
15	0	0	0	0	1	507	513	509	31	0	
0	0	0	0	0	0	503	514	513	31	0	
1	0	0	0	0	0	502	515	511	32	0	
2	0	0	0	0	0	504	516	512	32	0	
3	0	0	0	0	0	505	516	512	32	0	
4	0	0	0	0	0	503	515	510	32	0	
5	0	0	0	0	0	502	516	510	32	0	
6	0	0	0	0	0	504	512	508	32	0	
7	0	0	0	0	2	507	511	510	31	0	
8	0	0	0	0	0	505	510	511	31	0	
9	0	0	0	0	0	505	508	512	31	0	
10	0	0	0	0	0	507	506	508	31	0	
11	0	0	0	0	0	508	506	508	31	0	
12	0	0	0	0	0	509	504	505	31	0	
13	0	0	0	0	0	506	508	504	31	0	
14	0	0	0	0	0	508	511	506	31	0	
15	0	0	0	0	2	507	512	508	31	0	
0	0	0	0	0	0	507	512	503	31	0	
1	0	0	0	0	0	508	515	505	31	0	
2	0	0	0	0	0	504	515	507	31	0	
3	0	0	0	0	0	504	512	507	31	0	
4	0	0	0	0	0	504	513	508	31	0	
5	0	0	0	0	0	499	510	511	31	0	
6	0	0	0	0	0	500	509	508	32	0	
7	0	0	0	0	3	499	509	507	32	0	
8	0	0	0	0	0	502	510	512	32	0	
9	0	0	0	0	0	504	510	511	32	0	
10	0	0	0	0	0	503	508	511	31	0	
11	0	0	0	0	0	503	510	511	31	0	
12	0	0	0	0	0	505	508	507	31	0	
13	0	0	0	0	0	505	512	506	31	0	
14	0	0	0	0	0	508	512	505	31	0	
15	0	0	0	0	2	510	514	506	31	0	
0	0	0	0	0	0	507	515	505	31	0	
1	0	0	0	0	0	508	514	510	31	0	
2	0	0	0	0	0	507	515	511	31	0	
3	0	0	0	0	0	505	516	512	31	0	
4	0	0	0	0	0	505	516	512	31	0	
5	0	0	0	0	0	504	518	511	31	0	
6	0	0	0	0	0	505	513	511	31	0	
7	0	0	0	0	2	505	512	511	32	0	
8	0	0	0	0	0	504	512	512	32	0	
9	0	0	0	0	0	505	512	513	31	0	
10	0	0	0	0	0	505	509	511	31	0	
11	0	0	0	0	0	506	508	512	31	0	
12	0	0	0	0	0	505	510	508	31	0	
13	0	0	0	0	0	504	508	507	31	0	
14	0	0	0	0	0	505	512	507	31	0	
15	0	0	0	0	2	507	514	508	31	0	
0	0	0	0	0	0	506	513	509	31	0	
1	0	0	0	0	0	507	513	509	31	0	
2	0	0	0	0	0	504	514	511	31	0	
3	0	0	0	0	0	505	515	512	31	0	
4	0	0	0	0	0	503	516	511	32	0	
5	0	0	0	0	0	501	515	511	32	0	
6	0	0	0	0	0	504	515	508	32	0	
7	0	0	0	0	2	507	516	508	32	0	
8	0	0	0	0	0	506	513	513	32	0	
9	0	0	0	0	0	504	510	511	32	0	
10	0	0	0	0	0	505	508	508	32	0	
11	0	0	0	0	0	504	508	507	31	0	
12	0	0	0	0	0	506	510	512	31	0	
13	0	0	0	0	0	508	509	511	31	0	
14	0	0	0	0	0	509	511	508	31	0	
15	0	0	0	0	3	504	511	509	31	0	
0	0	0	0	0	0	508	510	510	31	0	
1	0	0	0	0	0	507	511	511	31	0	
2	0	0	0	0	0	506	512	509	31	0	
3	0	0	0	0	0	504	512	509	31	0	
4	0	0	0	0	0	505	514	509	31	0	
5	0	0	0	0	0	504	514	510	31	0	
6	0	0	0	0	0	503	516	511	32	0	
7	0	0	0	0	2	502	515	510	32	0	
8	0	0	0	0	0	502	513	511	32	0	
9	0	0	0	0	0	504	513	509	32	0	
10	0	0	0	0	0	504	513	506	31	0	
11	0	0	0	0	0	504	513	504	31	0	
12	0	0	0	0	0	507	510	506	31	0	
13	0	0	0	0	0	504	510	503	31	0	
14	0	0	0	0	0	505	512	503	31	0	
15	0	0	0	0	2	507	510	504	31	0	
0	0	0	0	0	0	505	509	508	31	0	
1	0	0	0	0	0	505	509	508	31	0	
2	0	0	0	0	0	507	509	511	31	0	
3	0	0	0	0	0	506	510	511	31	0	
4	0	0	0	0	0	507	514	511	31	0	
5	0	0	0	0	0	507	516	510	32	0	
6	0	0	0	0	0	503	514	507	32	0	
7	0	0	0	0	2	504	515	511	32	0	
8	0	0	0	0	0	505	514	512	32	0	
9	0	0	0	0	0	504	515	514	32	0	
10	0	0	0	0	0	502	512	514	31	0	
11	0	0	0	0	0	503	512	511	31	0	
12	0	0	0	0	0	503	510	509	31	0	
13	0	0	0	0	0	507	509	508	31	0	
14	0	0	0	0	0	507	508	506	31	0	
15	0	0	0	0	1	506	508	509	31	0	
0	0	0	0	0	0	505	511	508	31	0	
1	0	0	0	0	0	508	511	507	31	0	
2	0	0	0	0	0	503	510	508	31	0	
3	0	0	0	0	0	507	511	508	31	0	
4	0	0	0	0	0	504	516	510	31	0	
5	0	0	0	0	0	503	515	509	32	0	
6	0	0	0	0	0	503	515	511	32	0	
7	0	0	0	0	1	505	513	511	32	0	
8	0	0	0	0	0	504	513	510	32	0	
9	0	0	0	0	0	504	513	509	32	0	
10	0	0	0	0	0	505	510	511	32	0	
11	0	0	0	0	0	503	510	512	32	0	
12	0	0	0	0	0	504	508	511	31	0	
13	0	0	0	0	0	505	508	511	31	0	
14	0	0	0	0	0	505	509	509	31	0	
15	0	0	0	0	3	507	508	508	31	0	
0	0	0	0	0	0	507	512	508	31	0	
1	0	0	0	0	0	507	514	508	31	0	
2	0	0	0	0	0	507	510	504	31	0	
3	0	0	0	0	0	505	512	506	31	0	
4	0	0	0	0	0	505	515	509	31	0	
5	0	0	0	0	0	507	514	508	31	0	
6	0	0	0	0	0	506	515	509	31	0	
7	0	0	0	0	2	506	516	509	31	0	
8	0	0	0	0	0	502	515	510	32	0	
9	0	0	0	0	0	504	515	512	31	0	
10	0	0	0	0	0	503	512	513	32	0	
11	0	0	0	0	0	502	511	512	32	0	
12	0	0	0	0	0	503	511	509	31	0	
13	0	0	0	0	0	504	511	511	31	0	
14	0	0	0	0	0	505	510	507	31	0	
15	0	0	0	0	2	506	508	507	31	0	
0	0	0	0	0	0	507	508	505	31	0	
1	0	0	0	0	0	507	508	509	31	0	
2	0	0	0	0	0	508	509	512	31	0	
3	0	0	0	0	0	507	510	509	31	0	
4	0	0	0	0	0	506	511	511	31	0	
5	0	0	0	0	0	504	515	511	31	0	
6	0	0	0	0	0	504	515	510	31	0	
7	0	0	0	0	3	504	514	511	32	0	
8	0	0	0	0	0	506	517	513	32	0	
9	0	0	0	0	0	507	516	512	32	0	
10	0	0	0	0	0	507	515	510	32	0	
11	0	0	0	0	0	505	513	508	32	0	
12	0	0	0	0	0	504	512	506	32	0	
13	0	0	0	0	0	504	511	506	31	0	
14	0	0	0	0	0	504	508	507	31	0	
15	0	0	0	0	3	505	508	505	31	0	
0	0	0	0	0	0	505	508	505	31	0	
1	0	0	0	0	0	504	508	504	31	0	
2	0	0	0	0	0	504	510	506	31	0	
3	0	0	0	0	0	504	512	509	31	0	
4	0	0	0	0	0	504	513	506	31	0	
5	0	0	0	0	0	504	512	507	31	0	
6	0	0	0	0	0	504	513	508	31	0	
7	0	0	0	0	2	503	515	513	31	0	
8	0	0	0	0	0	504	518	511	31	0	
9	0	0	0	0	0	505	516	513	31	0	
10	0	0	0	0	0	504	515	513	32	0	
11	0	0	0	0	0	504	512	513	32	0	
12	0	0	0	0	0	506	511	511	32	0	
13	0	0	0	0	0	506	512	512	31	0	
14	0	0	0	0	0	507	510	510	31	0	
15	0	0	0	0	3	506	510	509	31	0	
0	0	0	0	0	0	506	508	509	31	0	
1	0	0	0	0	0	505	510	506	31	0	
2	0	0	0	0	0	507	510	506	31	0	
3	0	0	0	0	0	506	510	507	31	0	
4	0	0	0	0	0	508	514	508	31	0	
5	0	0	0	0	0	506	513	508	31	0	
6	0	0	0	0	0	508	513	509	31	0	
7	0	0	0	0	2	508	515	510	31	0	
8	0	0	0	0	0	504	516	511	31	0	
9	0	0	0	0	0	504	516	513	31	0	
10	0	0	0	0	0	502	513	511	31	0	
11	0	0	0	0	0	503	513	511	32	0	
12	0	0	0	0	0	502	512	510	31	0	
13	0	0	0	0	0	503	511	511	31	0	
14	0	0	0	0	0	502	511	509	31	0	
15	0	0	0	0	2	504	508	510	31	0	
0	0	0	0	0	0	507	509	506	31	0	
1	0	0	0	0	0	507	508	507	31	0	
2	0	0	0	0	0	507	506	507	31	0	
3	0	0	0	0	0	509	510	505	31	0	
4	0	0	0	0	0	507	512	505	31	0	
5	0	0	0	0	0	507	513	510	31	0	
6	0	0	0	0	0	507	515	509	31	0	
7	0	0	0	0	2	504	513	509	31	0	
8	0	0	0	0	0	503	513	509	31	0	
9	0	0	0	0	0	504	516	511	32	0	
10	0	0	0	0	0	502	518	513	31	0	
11	0	0	0	0	0	500	516	512	32	0	
12	0	0	0	0	0	501	514	510	32	0	
13	0	0	0	0	0	505	513	511	32	0	
14	0	0	0	0	0	505	513	512	32	0	
15	0	0	0	0	2	504	512	513	31	0	
0	0	0	0	0	0	506	509	512	32	0	
1	0	0	0	0	0	506	507	511	31	0	
2	0	0	0	0	0	505	506	510	31	0	
3	0	0	0	0	0	509	505	509	31	0	
4	0	0	0	0	0	509	509	507	31	0	
5	0	0	0	0	0	507	509	507	31	0	
6	0	0	0	0	0	507	511	505	31	0	
7	0	0	0	0	1	505	510	507	31	0	
8	0	0	0	0	0	505	512	508	31	0	
9	0	0	0	0	0	504	513	506	31	0	
10	0	0	0	0	0	502	516	504	31	0	
11	0	0	0	0	0	503	516	507	32	0	
12	0	0	0	0	0	502	517	507	31	0	
13	0	0	0	0	0	502	514	508	32	0	
14	0	0	0	0	0	504	515	510	31	0	
15	0	0	0	0	1	504	512	510	31	0	
0	0	0	0	0	0	503	513	510	31	0	
1	0	0	0	0	0	504	509	506	31	0	
2	0	0	0	0	0	504	508	509	31	0	
3	0	0	0	0	0	508	507	507	31	0	
4	0	0	0	0	0	508	508	508	31	0	
5	0	0	0	0	0	508	509	511	31	0	
6	0	0	0	0	0	508	510	511	31	0	
7	0	0	0	0	1	508	510	511	31	0	
8	0	0	0	0	0	507	515	511	31	0	
9	0	0	0	0	0	507	518	509	31	0	
10	0	0	0	0	0	504	516	508	31	0	
11	0	0	0	0	0	504	515	508	31	0	
12	0	0	0	0	0	503	517	512	32	0	
13	0	0	0	0	0	501	516	512	32	0	
14	0	0	0	0	0	506	515	513	32	0	
15	0	0	0	0	2	505	512	514	32	0	
0	0	0	0	0	0	505	510	512	31	0	
1	0	0	0	0	0	505	509	510	31	0	
2	0	0	0	0	0	504	507	508	31	0	
3	0	0	0	0	0	507	508	507	31	0	
4	0	0	0	0	0	507	508	504	30	0	
5	0	0	0	0	0	507	508	504	31	0	
6	0	0	0	0	0	507	508	502	31	0	
7	0	0	0	0	2	508	510	504	31	0	
8	0	0	0	0	0	507	512	508	31	0	
9	0	0	0	0	0	505	512	507	31	0	
10	0	0	0	0	0	504	513	507	31	0	
11	0	0	0	0	0	503	515	512	32	0	
12	0	0	0	0	0	503	514	513	32	0	
13	0	0	0	0	0	502	513	513	32	0	
14	0	0	0	0	0	502	514	513	32	0	
15	0	0	0	0	2	503	512	513	32	0	
0	0	0	0	0	0	504	513	512	31	0	
1	0	0	0	0	0	505	511	507	31	0	
2	0	0	0	0	0	508	510	508	31	0	
3	0	0	0	0	0	508	510	507	31	0	
4	0	0	0	0	0	505	510	508	31	0	
5	0	0	0	0	0	508	509	508	31	0	
6	0	0	0	0	0	506	511	509	31	0	
7	0	0	0	0	2	508	511	509	31	0	
8	0	0	0	0	0	504	512	509	31	0	
9	0	0	0	0	0	503	511	510	31	0	
10	0	0	0	0	0	505	515	511	31	0	
11	0	0	0	0	0	506	516	513	31	0	
12	0	0	0	0	0	504	515	511	31	0	
13	0	0	0	0	0	504	515	508	31	0	
14	0	0	0	0	0	504	514	511	32	0	
15	0	0	0	0	2	504	512	512	32	0	
0	0	0	0	0	0	504	514	511	32	0	
1	0	0	0	0	0	504	509	510	31	0	
2	0	0	0	0	0	504	508	507	31	0	
3	0	0	0	0	0	506	507	508	31	0	
4	0	0	0	0	0	507	509	510	31	0	
5	0	0	0	0	0	508	511	511	31	0	
6	0	0	0	0	0	506	508	511	31	0	
7	0	0	0	0	3	505	510	508	31	0	
8	0	0	0	0	0	505	511	507	31	0	
9	0	0	0	0	0	505	515	506	32	0	
10	0	0	0	0	0	504	514	505	32	0	
11	0	0	0	0	0	504	516	500	32	0	
12	0	0	0	0	0	503	515	501	31	0	
13	0	0	0	0	0	504	516	504	31	0	
14	0	0	0	0	0	505	516	510	31	0	
15	0	0	0	0	2	503	515	513	31	0	
0	0	0	0	0	0	504	514	518	31	0	
1	0	0	0	0	0	505	511	517	31	0	
2	0	0	0	0	0	506	513	510	31	0	
3	0	0	0	0	0	505	510	503	32	0	
4	0	0	0	0	0	507	508	500	32	0	
5	0	0	0	0	0	507	508	504	32	0	
6	0	0	0	0	0	505	508	507	32	0	
7	0	0	0	0	2	505	509	508	32	0	
8	0	0	0	0	0	507	511	511	31	0	
9	0	0	0	0	0	506	513	514	31	0	
10	0	0	0	0	0	508	511	515	31	0	
11	0	0	0	0	0	504	513	515	31	0	
12	0	0	0	0	0	505	512	512	31	0	
13	0	0	0	0	0	504	516	512	31	0	
14	0	0	0	0	0	503	515	512	31	0	
15	0	0	0	0	2	504	515	511	32	0	
0	0	0	0	0	0	504	513	512	32	0	
1	0	0	0	0	0	504	514	512	32	0	
2	0	0	0	0	0	504	514	515	32	0	
3	0	0	0	0	0	504	510	514	32	0	
4	0	0	0	0	0	504	510	511	31	0	
5	0	0	0	0	0	503	510	512	31	0	
6	0	0	0	0	0	507	510	510	31	0	
7	0	0	0	0	2	508	509	508	31	0	
8	0	0	0	0	0	508	511	508	31	0	
9	0	0	0	0	0	506	512	507	31	0	
10	0	0	0	0	0	505	515	503	32	0	
11	0	0	0	0	0	505	512	507	32	0	
12	0	0	0	0	0	508	517	511	33	0	
13	0	0	0	0	0	506	516	517	32	0	
14	0	0	0	0	0	506	516	519	31	0	
15	0	0	0	0	2	504	515	518	31	0	
0	0	0	0	0	0	503	518	510	30	0	
1	0	0	0	0	0	505	516	503	30	0	
2	0	0	0	0	0	505	510	495	30	0	
3	0	0	0	0	0	504	507	492	30	0	
4	0	0	0	0	0	503	507	493	31	0	
5	0	0	0	0	0	507	510	496	32	0	
6	0	0	0	0	0	506	508	496	32	0	
7	0	0	0	0	1	504	509	500	32	0	
8	0	0	0	0	0	503	508	508	32	0	
9	0	0	0	0	0	504	508	520	32	0	
10	0	0	0	0	0	504	510	525	32	0	
11	0	0	0	0	0	508	513	524	32	0	
12	0	0	0	0	0	508	514	527	32	0	
13	0	0	0	0	0	504	515	531	33	0	
14	0	0	0	0	0	503	516	527	33	0	
15	0	0	0	0	1	502	518	517	32	0	
0	0	0	0	0	0	501	517	521	32	0	
1	0	0	0	0	0	505	516	542	33	0	
2	0	0	0	0	0	508	512	551	34	0	
3	0	0	0	0	0	512	509	530	32	0	
4	0	0	0	0	0	509	509	510	32	0	
5	0	0	0	0	0	504	510	486	32	0	
6	0	0	0	0	0	502	510	467	31	0	
7	0	0	0	0	1	504	510	482	30	0	
8	0	0	0	0	0	504	507	490	28	0	
9	0	0	0	0	0	511	507	481	29	0	
10	0	0	0	0	0	513	507	460	29	0	
11	0	0	0	0	0	508	512	447	28	0	
12	0	0	0	0	0	504	508	465	28	0	
13	0	0	0	0	0	504	506	496	28	0	
14	0	0	0	0	0	502	512	521	30	0	
15	0	0	0	0	2	502	516	542	31	0	
0	0	0	0	0	0	499	514	565	33	0	
1	0	0	0	0	0	499	515	573	35	0	
2	0	0	0	0	0	497	519	558	36	0	
3	0	0	0	0	0	503	518	537	37	0	
4	0	0	0	0	0	508	518	536	36	0	
5	0	0	0	0	0	507	517	535	33	0	
6	0	0	0	0	0	510	513	519	28	0	
7	0	0	0	0	3	517	508	478	25	0	
8	0	0	0	0	0	516	504	433	25	0	
9	0	0	0	0	0	510	504	413	26	0	
10	0	0	0	0	0	507	508	414	27	0	
11	0	0	0	0	0	508	509	434	29	0	
12	0	0	0	0	0	503	511	455	31	0	
13	0	0	0	0	0	500	514	497	33	0	
14	0	0	0	0	0	497	518	536	34	0	
15	0	0	0	0	2	499	517	565	34	0	
0	0	0	0	0	0	498	519	585	35	0	
1	0	0	0	0	0	500	516	587	34	0	
2	0	0	0	0	0	505	516	577	34	0	
3	0	0	0	0	0	506	515	552	33	0	
4	0	0	0	0	0	506	510	529	34	0	
5	0	0	0	0	0	499	504	519	34	0	
6	0	0	0	0	0	494	510	525	36	0	
7	0	0	0	0	2	500	513	560	37	0	
8	0	0	0	0	0	503	514	597	37	0	
9	0	0	0	0	0	512	515	587	32	0	
10	0	0	0	0	0	523	510	522	26	0	
11	0	0	0	0	0	526	510	412	21	0	
12	0	0	0	0	0	519	509	319	19	0	
13	0	0	0	0	0	504	504	322	21	0	
14	0	0	0	0	0	497	501	400	25	0	
15	0	0	0	0	2	497	507	479	31	0	
0	0	0	0	0	0	498	513	535	35	0	
1	0	0	0	0	0	499	516	569	36	0	
2	0	0	0	0	0	501	517	584	35	0	
3	0	0	0	0	0	503	519	574	34	0	
4	0	0	0	0	0	505	519	531	33	0	
5	0	0	0	0	0	502	514	508	33	0	
6	0	0	0	0	0	504	510	511	34	0	
7	0	0	0	0	2	503	511	519	35	0	
8	0	0	0	0	0	506	512	515	33	0	
9	0	0	0	0	0	505	512	499	31	0	
10	0	0	0	0	0	504	511	496	31	0	
11	0	0	0	0	0	508	509	510	30	0	
12	0	0	0	0	0	508	507	524	29	0	
13	0	0	0	0	0	510	509	525	30	0	
14	0	0	0	0	0	508	513	509	32	0	
15	0	0	0	0	3	505	516	484	33	0	
0	0	0	0	0	0	502	515	492	33	0	
1	0	0	0	0	0	502	516	520	32	0	
2	0	0	0	0	0	500	516	551	32	0	
3	0	0	0	0	0	500	519	568	31	0	
4	0	0	0	0	0	504	515	537	29	0	
5	0	0	0	0	0	509	509	509	28	0	
6	0	0	0	0	0	508	509	490	30	0	
7	0	0	0	0	2	507	508	486	31	0	
8	0	0	0	0	0	507	507	486	31	0	
9	0	0	0	0	0	505	508	494	31	0	
10	0	0	0	0	0	507	508	504	31	0	
11	0	0	0	0	0	508	512	507	32	0	
12	0	0	0	0	0	507	513	511	33	0	
13	0	0	0	0	0	505	515	516	33	0	
14	0	0	0	0	0	504	519	527	32	0	
15	0	0	0	0	2	506	516	506	32	0	
0	0	0	0	0	0	505	513	487	31	0	
1	0	0	0	0	0	504	509	486	32	0	
2	0	0	0	0	0	504	513	505	33	0	
3	0	0	0	0	0	503	514	536	33	0	
4	0	0	0	0	0	504	513	547	32	0	
5	0	0	0	0	0	501	512	529	31	0	
6	0	0	0	0	0	500	510	528	32	0	
7	0	0	0	0	2	504	507	500	33	0	
8	0	0	0	0	0	501	512	461	34	0	
9	0	0	0	0	0	503	515	479	34	0	
10	0	0	0	0	0	507	515	523	31	0	
11	0	0	0	0	0	512	513	556	28	0	
12	0	0	0	0	0	514	506	548	27	0	
13	0	0	0	0	0	513	503	496	28	0	
14	0	0	0	0	0	503	507	444	32	0	
15	0	0	0	0	2	500	513	460	36	0	
0	0	0	0	0	0	503	517	507	35	0	
1	0	0	0	0	0	504	520	532	32	0	
2	0	0	0	0	0	507	516	518	26	0	
3	0	0	0	0	0	510	512	498	23	0	
4	0	0	0	0	0	505	509	482	23	0	
5	0	0	0	0	0	508	507	479	24	0	
6	0	0	0	0	0	507	504	471	27	0	
7	0	0	0	0	1	503	505	487	31	0	
8	0	0	0	0	0	502	511	509	33	0	
9	0	0	0	0	0	503	512	533	35	0	
10	0	0	0	0	0	506	513	536	34	0	
11	0	0	0	0	0	508	510	524	34	0	
12	0	0	0	0	0	504	510	514	33	0	
13	0	0	0	0	0	504	510	520	33	0	
14	0	0	0	0	0	506	514	527	33	0	
15	0	0	0	0	1	503	513	523	33	0	
0	0	0	0	0	0	506	515	519	33	0	
1	0	0	0	0	0	505	515	516	33	0	
2	0	0	0	0	0	507	518	509	34	0	
3	0	0	0	0	0	508	519	510	33	0	
4	0	0	0	0	0	507	518	516	33	0	
5	0	0	0	0	0	504	518	515	32	0	
6	0	0	0	0	0	499	515	515	33	0	
7	0	0	0	0	2	502	514	515	33	0	
8	0	0	0	0	0	501	511	519	34	0	
9	0	0	0	0	0	500	511	531	34	0	
10	0	0	0	0	0	506	511	522	32	0	
11	0	0	0	0	0	511	505	511	28	0	
12	0	0	0	0	0	511	502	509	26	0	
13	0	0	0	0	0	509	506	517	27	0	
14	0	0	0	0	0	509	508	503	28	0	
15	0	0	0	0	2	506	510	473	29	0	
0	0	0	0	0	0	506	511	463	31	0	
1	0	0	0	0	0	504	514	482	32	0	
2	0	0	0	0	0	502	515	500	32	0	
3	0	0	0	0	0	499	515	510	32	0	
4	0	0	0	0	0	502	514	517	32	0	
5	0	0	0	0	0	502	515	513	32	0	
6	0	0	0	0	0	504	513	511	32	0	
7	0	0	0	0	3	504	512	511	32	0	
8	0	0	0	0	0	504	512	508	31	0	
9	0	0	0	0	0	505	513	509	31	0	
10	0	0	0	0	0	507	511	510	32	0	
11	0	0	0	0	0	504	511	515	32	0	
12	0	0	0	0	0	507	510	516	32	0	
13	0	0	0	0	0	505	510	514	32	0	
14	0	0	0	0	0	504	512	509	31	0	
15	0	0	0	0	3	508	512	508	31	0	
0	0	0	0	0	0	509	513	507	31	0	
1	0	0	0	0	0	510	515	504	31	0	
2	0	0	0	0	0	509	513	507	31	0	
3	0	0	0	0	0	507	516	510	31	0	
4	0	0	0	0	0	507	515	512	32	0	
5	0	0	0	0	0	503	518	512	32	0	
6	0	0	0	0	0	498	518	513	33	0	
7	0	0	0	0	2	497	515	518	32	0	
8	0	0	0	0	0	501	513	516	32	0	
9	0	0	0	0	0	501	508	510	31	0	
10	0	0	0	0	0	502	505	508	31	0	
11	0	0	0	0	0	504	506	516	32	0	
12	0	0	0	0	0	506	506	529	33	0	
13	0	0	0	0	0	507	509	531	32	0	
14	0	0	0	0	0	510	510	516	31	0	
15	0	0	0	0	2	509	512	494	29	0	
0	0	0	0	0	0	510	510	481	28	0	
1	0	0	0	0	0	507	509	480	28	0	
2	0	0	0	0	0	510	512	490	30	0	
3	0	0	0	0	0	505	513	499	31	0	
4	0	0	0	0	0	505	513	504	32	0	
5	0	0	0	0	0	502	515	505	32	0	
6	0	0	0	0	0	502	518	508	33	0	
7	0	0	0	0	2	502	515	515	33	0	
8	0	0	0	0	0	501	515	523	33	0	
9	0	0	0	0	0	505	514	529	33	0	
10	0	0	0	0	0	507	510	523	32	0	
11	0	0	0	0	0	503	508	518	31	0	
12	0	0	0	0	0	504	509	519	31	0	
13	0	0	0	0	0	505	507	515	31	0	
14	0	0	0	0	0	508	509	508	31	0	
15	0	0	0	0	3	507	509	505	31	0	
0	0	0	0	0	0	505	511	508	32	0	
1	0	0	0	0	0	507	511	494	32	0	
2	0	0	0	0	0	505	511	478	32	0	
3	0	0	0	0	0	505	517	511	33	0	
4	0	0	0	0	0	507	517	529	32	0	
5	0	0	0	0	0	508	519	513	32	0	
6	0	0	0	0	0	507	516	496	30	0	
7	0	0	0	0	2	504	512	496	29	0	
8	0	0	0	0	0	504	509	505	29	0	
9	0	0	0	0	0	505	512	510	30	0	
10	0	0	0	0	0	503	513	511	31	0	
11	0	0	0	0	0	504	511	506	31	0	
12	0	0	0	0	0	505	512	504	32	0	
13	0	0	0	0	0	505	511	504	32	0	
14	0	0	0	0	0	505	510	508	32	0	
15	0	0	0	0	2	505	510	507	32	0	
0	0	0	0	0	0	508	512	508	32	0	
1	0	0	0	0	0	507	511	507	32	0	
2	0	0	0	0	0	506	511	508	32	0	
3	0	0	0	0	0	504	511	514	32	0	
4	0	0	0	0	0	502	511	516	32	0	
5	0	0	0	0	0	500	511	515	32	0	
6	0	0	0	0	0	499	512	515	31	0	
7	0	0	0	0	2	502	512	513	31	0	
8	0	0	0	0	0	501	516	515	32	0	
9	0	0	0	0	0	500	512	515	32	0	
10	0	0	0	0	0	504	511	519	32	0	
11	0	0	0	0	0	504	512	521	32	0	
12	0	0	0	0	0	507	507	524	32	0	
13	0	0	0	0	0	508	512	514	31	0	
14	0	0	0	0	0	508	511	504	31	0	
15	0	0	0	0	1	510	511	494	31	0	
0	0	0	0	0	0	508	512	492	32	0	
1	0	0	0	0	0	508	510	498	32	0	
2	0	0	0	0	0	508	512	512	31	0	
3	0	0	0	0	0	507	512	519	31	0	
4	0	0	0	0	0	508	513	519	31	0	
5	0	0	0	0	0	505	516	516	31	0	
6	0	0	0	0	0	507	517	512	32	0	
7	0	0	0	0	1	506	519	500	32	0	
8	0	0	0	0	0	505	517	498	31	0	
9	0	0	0	0	0	504	513	499	31	0	
10	0	0	0	0	0	504	513	501	30	0	
11	0	0	0	0	0	504	508	507	30	0	
12	0	0	0	0	0	504	510	504	31	0	
13	0	0	0	0	0	504	510	502	31	0	
14	0	0	0	0	0	505	509	501	31	0	
15	0	0	0	0	1	505	508	507	31	0	
0	0	0	0	0	0	507	510	516	32	0	
1	0	0	0	0	0	507	511	514	32	0	
2	0	0	0	0	0	504	510	511	31	0	
3	0	0	0	0	0	502	510	507	31	0	
4	0	0	0	0	0	507	511	504	31	0	
5	0	0	0	0	0	508	511	507	31	0	
6	0	0	0	0	0	505	515	519	32	0	
7	0	0	0	0	2	504	516	532	32	0	
8	0	0	0	0	0	504	515	529	32	0	
9	0	0	0	0	0	503	515	515	31	0	
10	0	0	0	0	0	505	514	498	31	0	
11	0	0	0	0	0	501	512	508	31	0	
12	0	0	0	0	0	503	513	518	32	0	
13	0	0	0	0	0	503	511	515	32	0	
14	0	0	0	0	0	505	510	505	32	0	
15	0	0	0	0	2	504	508	501	32	0	
0	0	0	0	0	0	504	511	503	32	0	
1	0	0	0	0	0	505	511	510	32	0	
2	0	0	0	0	0	507	513	509	31	0	
3	0	0	0	0	0	507	511	508	31	0	
4	0	0	0	0	0	508	511	509	31	0	
5	0	0	0	0	0	507	512	510	31	0	
6	0	0	0	0	0	507	515	508	32	0	
7	0	0	0	0	2	506	515	502	32	0	
8	0	0	0	0	0	504	518	499	32	0	
9	0	0	0	0	0	506	515	506	31	0	
10	0	0	0	0	0	506	514	512	30	0	
11	0	0	0	0	0	505	513	514	30	0	
12	0	0	0	0	0	505	513	514	30	0	
13	0	0	0	0	0	505	511	510	31	0	
14	0	0	0	0	0	504	510	504	31	0	
15	0	0	0	0	2	503	509	502	31	0	
0	0	0	0	0	0	504	508	501	31	0	
1	0	0	0	0	0	506	508	504	32	0	
2	0	0	0	0	0	506	509	508	32	0	
3	0	0	0	0	0	509	509	508	32	0	
4	0	0	0	0	0	509	512	507	32	0	
5	0	0	0	0	0	506	513	508	32	0	
6	0	0	0	0	0	506	515	511	32	0	
7	0	0	0	0	3	506	514	518	32	0	
8	0	0	0	0	0	505	513	519	32	0	
9	0	0	0	0	0	504	515	509	31	0	
10	0	0	0	0	0	501	513	508	32	0	
11	0	0	0	0	0	503	516	517	32	0	
12	0	0	0	0	0	500	512	525	31	0	
13	0	0	0	0	0	503	510	516	31	0	
14	0	0	0	0	0	504	513	500	31	0	
15	0	0	0	0	2	509	512	494	31	0	
0	0	0	0	0	0	508	508	500	31	0	
1	0	0	0	0	0	507	506	505	31	0	
2	0	0	0	0	0	505	509	510	31	0	
3	0	0	0	0	0	504	508	508	31	0	
4	0	0	0	0	0	504	512	510	32	0	
5	0	0	0	0	0	507	510	507	32	0	
6	0	0	0	0	0	503	512	508	31	0	
7	0	0	0	0	2	505	512	508	31	0	
8	0	0	0	0	0	505	514	511	31	0	
9	0	0	0	0	0	504	515	516	32	0	
10	0	0	0	0	0	506	516	514	32	0	
11	0	0	0	0	0	503	514	515	31	0	
12	0	0	0	0	0	502	515	513	31	0	
13	0	0	0	0	0	503	514	512	31	0	
14	0	0	0	0	0	503	515	513	31	0	
15	0	0	0	0	2	504	513	513	31	0	
0	0	0	0	0	0	507	512	510	32	0	
1	0	0	0	0	0	507	508	509	32	0	
2	0	0	0	0	0	508	508	505	32	0	
3	0	0	0	0	0	507	508	504	32	0	
4	0	0	0	0	0	507	511	502	31	0	
5	0	0	0	0	0	507	513	506	31	0	
6	0	0	0	0	0	508	512	508	31	0	
7	0	0	0	0	3	508	512	505	30	0	
8	0	0	0	0	0	508	513	503	31	0	
9	0	0	0	0	0	506	513	504	31	0	
10	0	0	0	0	0	503	514	512	31	0	
11	0	0	0	0	0	504	514	509	31	0	
12	0	0	0	0	0	504	511	504	32	0	
13	0	0	0	0	0	501	511	504	32	0	
14	0	0	0	0	0	500	511	510	32	0	
15	0	0	0	0	3	501	512	516	32	0	
0	0	0	0	0	0	503	511	518	32	0	
1	0	0	0	0	0	503	510	514	32	0	
2	0	0	0	0	0	505	507	512	32	0	
3	0	0	0	0	0	505	509	510	32	0	
4	0	0	0	0	0	505	510	510	31	0	
5	0	0	0	0	0	506	511	507	31	0	
6	0	0	0	0	0	507	512	509	31	0	
7	0	0	0	0	2	507	513	508	31	0	
8	0	0	0	0	0	505	514	509	31	0	
9	0	0	0	0	0	505	514	509	31	0	
10	0	0	0	0	0	508	515	511	31	0	
11	0	0	0	0	0	507	516	510	32	0	
12	0	0	0	0	0	504	516	510	32	0	
13	0	0	0	0	0	503	513	512	32	0	
14	0	0	0	0	0	504	512	509	32	0	
15	0	0	0	0	1	505	511	508	32	0	
0	0	0	0	0	0	505	510	508	32	0	
1	0	0	0	0	0	506	510	511	32	0	
2	0	0	0	0	0	507	509	515	31	0	
3	0	0	0	0	0	509	508	516	31	0	
4	0	0	0	0	0	509	510	512	31	0	
5	0	0	0	0	0	507	508	506	31	0	
6	0	0	0	0	0	507	511	500	30	0	
7	0	0	0	0	1	507	515	497	30	0	
8	0	0	0	0	0	506	513	491	30	0	
9	0	0	0	0	0	505	513	496	31	0	
10	0	0	0	0	0	504	516	505	31	0	
11	0	0	0	0	0	504	513	514	31	0	
12	0	0	0	0	0	502	515	515	31	0	
13	0	0	0	0	0	501	515	513	32	0	
14	0	0	0	0	0	501	515	513	32	0	
15	0	0	0	0	1	504	514	513	32	0	
0	0	0	0	0	0	504	511	512	32	0	
1	0	0	0	0	0	505	512	510	32	0	
2	0	0	0	0	0	504	511	509	32	0	
3	0	0	0	0	0	508	508	508	31	0	
4	0	0	0	0	0	507	507	510	31	0	
5	0	0	0	0	0	503	507	510	31	0	
6	0	0	0	0	0	505	508	511	31	0	
7	0	0	0	0	3	508	507	512	31	0	
8	0	0	0	0	0	508	511	506	31	0	
9	0	0	0	0	0	508	512	503	31	0	
10	0	0	0	0	0	504	514	502	31	0	
11	0	0	0	0	0	504	515	505	31	0	
12	0	0	0	0	0	503	516	512	32	0	
13	0	0	0	0	0	502	515	512	31	0	
14	0	0	0	0	0	504	513	512	32	0	
15	0	0	0	0	3	501	513	512	32	0	
0	0	0	0	0	0	500	512	514	31	0	
1	0	0	0	0	0	502	513	513	32	0	
2	0	0	0	0	0	504	512	511	32	0	
3	0	0	0	0	0	505	508	512	32	0	
4	0	0	0	0	0	505	509	512	32	0	
5	0	0	0	0	0	506	510	510	31	0	
6	0	0	0	0	0	506	511	508	31	0	
7	0	0	0	0	2	507	512	508	31	0	
8	0	0	0	0	0	508	511	508	31	0	
9	0	0	0	0	0	507	514	508	31	0	
10	0	0	0	0	0	507	517	505	31	0	
11	0	0	0	0	0	507	515	507	31	0	
12	0	0	0	0	0	507	517	507	31	0	
13	0	0	0	0	0	506	517	507	32	0	
14	0	0	0	0	0	505	515	509	32	0	
15	0	0	0	0	2	501	513	514	32	0	
0	0	0	0	0	0	501	512	514	32	0	
1	0	0	0	0	0	502	511	513	31	0	
2	0	0	0	0	0	505	510	512	31	0	
3	0	0	0	0	0	506	509	510	31	0	
4	0	0	0	0	0	506	508	508	31	0	
5	0	0	0	0	0	507	507	504	31	0	
6	0	0	0	0	0	507	508	504	31	0	
7	0	0	0	0	2	505	507	504	31	0	
8	0	0	0	0	0	506	510	504	32	0	
9	0	0	0	0	0	508	508	507	32	0	
10	0	0	0	0	0	504	511	512	32	0	
11	0	0	0	0	0	506	513	512	31	0	
12	0	0	0	0	0	506	515	511	31	0	
13	0	0	0	0	0	505	515	511	32	0	
14	0	0	0	0	0	505	516	511	31	0	
15	0	0	0	0	3	504	515	510	31	0	
0	0	0	0	0	0	501	514	508	32	0	
1	0	0	0	0	0	503	514	506	32	0	
2	0	0	0	0	0	505	514	506	31	0	
3	0	0	0	0	0	504	513	508	31	0	
4	0	0	0	0	0	503	511	508	31	0	
5	0	0	0	0	0	507	509	508	31	0	
6	0	0	0	0	0	505	507	509	31	0	
7	0	0	0	0	2	506	509	512	31	0	
8	0	0	0	0	0	506	511	507	31	0	
9	0	0	0	0	0	505	510	505	31	0	
10	0	0	0	0	0	507	514	505	31	0	
11	0	0	0	0	0	504	510	508	31	0	
12	0	0	0	0	0	504	512	511	31	0	
13	0	0	0	0	0	505	515	512	31	0	
14	0	0	0	0	0	504	515	512	31	0	
15	0	0	0	0	2	503	515	509	32	0	
0	0	0	0	0	0	502	515	510	31	0	
1	0	0	0	0	0	503	514	510	32	0	
2	0	0	0	0	0	507	513	512	31	0	
3	0	0	0	0	0	504	512	512	31	0	
4	0	0	0	0	0	504	510	511	32	0	
5	0	0	0	0	0	505	508	511	31	0	
6	0	0	0	0	0	505	508	507	31	0	
7	0	0	0	0	3	504	508	505	31	0	
8	0	0	0	0	0	508	509	507	31	0	
9	0	0	0	0	0	505	511	507	31	0	
10	0	0	0	0	0	508	509	508	31	0	
11	0	0	0	0	0	506	512	510	31	0	
12	0	0	0	0	0	504	514	510	31	0	
13	0	0	0	0	0	503	513	512	31	0	
14	0	0	0	0	0	505	516	512	31	0	
15	0	0	0	0	2	503	516	512	32	0	
0	0	0	0	0	0	504	516	512	32	0	
1	0	0	0	0	0	504	515	510	32	0	
2	0	0	0	0	0	504	516	509	31	0	
3	0	0	0	0	0	504	515	508	31	0	
4	0	0	0	0	0	505	512	510	31	0	
5	0	0	0	0	0	508	508	509	31	0	
6	0	0	0	0	0	510	507	509	31	0	
7	0	0	0	0	3	510	510	507	31	0	
8	0	0	0	0	0	512	507	504	31	0	
9	0	0	0	0	0	508	509	502	31	0	
10	0	0	0	0	0	507	513	503	31	0	
11	0	0	0	0	0	504	513	504	31	0	
12	0	0	0	0	0	505	513	505	31	0	
13	0	0	0	0	0	503	514	508	31	0	
14	0	0	0	0	0	500	515	515	31	0	
15	0	0	0	0	1	497	516	517	31	0	
0	0	0	0	0	0	497	515	515	32	0	
1	0	0	0	0	0	501	515	511	32	0	
2	0	0	0	0	0	503	512	511	32	0	
3	0	0	0	0	0	503	511	511	32	0	
4	0	0	0	0	0	504	510	512	32	0	
5	0	0	0	0	0	503	511	511	31	0	
6	0	0	0	0	0	504	507	510	32	0	
7	0	0	0	0	1	508	507	512	32	0	
8	0	0	0	0	0	507	506	509	31	0	
9	0	0	0	0	0	509	508	508	31	0	
10	0	0	0	0	0	510	512	506	31	0	
11	0	0	0	0	0	509	513	508	31	0	
12	0	0	0	0	0	512	513	506	31	0	
13	0	0	0	0	0	510	511	508	31	0	
14	0	0	0	0	0	506	514	505	31	0	
15	0	0	0	0	2	504	515	507	31	0	
0	0	0	0	0	0	504	515	506	31	0	
1	0	0	0	0	0	504	516	507	31	0	
2	0	0	0	0	0	504	515	511	31	0	
3	0	0	0	0	0	502	514	511	32	0	
4	0	0	0	0	0	502	513	511	32	0	
5	0	0	0	0	0	505	513	511	32	0	
6	0	0	0	0	0	505	512	508	31	0	
7	0	0	0	0	2	506	508	506	31	0	
8	0	0	0	0	0	506	509	509	31	0	
9	0	0	0	0	0	505	511	509	31	0	
