# OpenSignals Text File Format. Version 1
# {"98:D3:51:FE:6E:5C": {"position": 0, "device": "bitalino_rev", "device name": "98:D3:51:FE:6E:5C", "device connection": "BTH98:D3:51:FE:6E:5C", "sampling rate": 1000, "resolution": [4, 1, 1, 1, 1, 10, 10, 10, 10, 6, 6], "firmware version": 1282, "comments": "", "keywords": "", "mode": 0, "sync interval": 2, "date": "2026-6-12", "time": "12:20:2.495", "channels": [1, 2, 3, 4, 5, 6], "sensor": ["RAW", "RAW", "RAW", "RAW", "RAW", "RAW"], "label": ["A1", "A2", "A3", "A4", "A5", "A6"], "column": ["nSeq", "I1", "I2", "O1", "O2", "A1", "A2", "A3", "A4", "A5", "A6"], "special": [{}, {}, {}, {}, {}, {}], "digital IO": [0, 0, 1, 1]}}
# EndOfHeader
0	0	0	0	0	0	514	506	511	32	0	
1	0	0	0	0	0	518	505	511	32	0	
2	0	0	0	0	0	515	508	512	32	0	
3	0	0	0	0	0	513	510	511	31	0	
4	0	0	0	0	0	515	510	510	31	0	
5	0	0	0	0	0	512	510	511	32	0	
6	0	0	0	0	1	515	511	513	32	0	
7	0	0	0	0	0	514	510	512	32	0	
8	0	0	0	0	0	513	510	513	32	0	
9	0	0	0	0	0	514	512	510	32	0	
10	0	0	0	0	0	514	511	511	31	0	
11	0	0	0	0	0	514	510	509	31	0	
12	0	0	0	0	0	511	511	511	31	0	
13	0	0	0	0	0	510	509	512	32	0	
14	0	0	0	0	1	513	506	513	32	0	
15	0	0	0	0	0	511	507	515	32	0	
0	0	0	0	0	0	517	508	511	32	0	
1	0	0	0	0	0	515	511	508	31	0	
2	0	0	0	0	0	516	509	510	31	0	
3	0	0	0	0	0	514	510	510	32	0	
4	0	0	0	0	0	516	512	511	32	0	
5	0	0	0	0	0	514	512	513	32	0	
6	0	0	0	0	1	514	511	512	31	0	
7	0	0	0	0	0	513	510	508	31	0	
8	0	0	0	0	0	511	510	510	31	0	
9	0	0	0	0	0	511	511	510	31	0	
10	0	0	0	0	0	510	512	509	31	0	
11	0	0	0	0	0	512	510	511	32	0	
12	0	0	0	0	0	512	508	511	32	0	
13	0	0	0	0	0	516	507	509	32	0	
14	0	0	0	0	1	516	508	508	32	0	
15	0	0	0	0	0	519	507	506	32	0	
0	0	0	0	0	0	515	508	511	32	0	
1	0	0	0	0	0	515	511	514	31	0	
2	0	0	0	0	0	514	511	511	31	0	
3	0	0	0	0	0	511	511	513	31	0	
4	0	0	0	0	0	513	513	514	31	0	
5	0	0	0	0	0	515	512	513	32	0	
6	0	0	0	0	1	513	512	514	32	0	
7	0	0	0	0	0	511	510	513	32	0	
8	0	0	0	0	0	515	513	511	32	0	
9	0	0	0	0	0	514	510	509	31	0	
10	0	0	0	0	0	513	508	507	31	0	
11	0	0	0	0	0	514	509	507	32	0	
12	0	0	0	0	0	513	505	510	32	0	
13	0	0	0	0	0	514	508	509	32	0	
14	0	0	0	0	0	515	510	512	32	0	
15	0	0	0	0	0	512	511	512	32	0	
0	0	0	0	0	0	512	511	511	31	0	
1	0	0	0	0	0	515	512	510	31	0	
2	0	0	0	0	0	513	511	511	31	0	
3	0	0	0	0	0	513	511	512	31	0	
4	0	0	0	0	0	516	508	514	32	0	
5	0	0	0	0	0	513	506	511	31	0	
6	0	0	0	0	1	514	508	513	32	0	
7	0	0	0	0	0	512	505	514	32	0	
8	0	0	0	0	0	511	508	513	32	0	
9	0	0	0	0	0	514	509	513	32	0	
10	0	0	0	0	0	516	509	511	32	0	
11	0	0	0	0	0	515	511	507	31	0	
12	0	0	0	0	0	513	511	508	31	0	
13	0	0	0	0	0	515	511	512	31	0	
14	0	0	0	0	1	515	510	511	31	0	
15	0	0	0	0	0	512	510	508	32	0	
0	0	0	0	0	0	515	514	511	32	0	
1	0	0	0	0	0	513	511	511	32	0	
2	0	0	0	0	0	514	509	511	32	0	
3	0	0	0	0	0	514	508	509	31	0	
4	0	0	0	0	0	512	510	511	32	0	
5	0	0	0	0	0	514	510	511	32	0	
6	0	0	0	0	1	514	511	511	31	0	
7	0	0	0	0	0	514	511	513	31	0	
8	0	0	0	0	0	515	508	513	32	0	
9	0	0	0	0	0	512	505	512	32	0	
10	0	0	0	0	0	513	508	511	32	0	
11	0	0	0	0	0	513	508	511	32	0	
12	0	0	0	0	0	515	510	513	32	0	
13	0	0	0	0	0	512	511	511	32	0	
14	0	0	0	0	1	513	512	510	32	0	
15	0	0	0	0	0	512	513	509	31	0	
0	0	0	0	0	0	516	512	508	31	0	
1	0	0	0	0	0	514	511	509	31	0	
2	0	0	0	0	0	513	510	508	31	0	
3	0	0	0	0	0	516	510	510	31	0	
4	0	0	0	0	0	517	512	513	32	0	
5	0	0	0	0	0	515	510	510	32	0	
6	0	0	0	0	1	515	507	514	32	0	
7	0	0	0	0	0	513	508	513	31	0	
8	0	0	0	0	0	513	509	510	31	0	
9	0	0	0	0	0	514	506	514	31	0	
10	0	0	0	0	0	513	509	510	31	0	
11	0	0	0	0	0	511	509	513	32	0	
12	0	0	0	0	0	510	508	514	32	0	
13	0	0	0	0	0	509	507	510	32	0	
14	0	0	0	0	1	513	505	508	32	0	
15	0	0	0	0	0	513	507	507	32	0	
0	0	0	0	0	0	514	510	508	31	0	
1	0	0	0	0	0	515	510	508	31	0	
2	0	0	0	0	0	513	513	513	31	0	
3	0	0	0	0	0	515	512	512	32	0	
4	0	0	0	0	0	515	512	510	31	0	
5	0	0	0	0	0	515	512	509	31	0	
6	0	0	0	0	1	514	512	507	31	0	
7	0	0	0	0	0	514	512	512	32	0	
8	0	0	0	0	0	515	507	514	32	0	
9	0	0	0	0	0	518	506	512	32	0	
10	0	0	0	0	0	517	506	511	32	0	
11	0	0	0	0	0	514	510	508	31	0	
12	0	0	0	0	0	515	510	511	31	0	
13	0	0	0	0	0	513	508	510	31	0	
14	0	0	0	0	1	513	509	508	31	0	
15	0	0	0	0	0	516	508	509	31	0	
0	0	0	0	0	0	511	509	512	32	0	
1	0	0	0	0	0	513	510	509	31	0	
2	0	0	0	0	0	512	508	510	31	0	
3	0	0	0	0	0	513	510	508	32	0	
4	0	0	0	0	0	515	510	514	32	0	
5	0	0	0	0	0	512	510	518	32	0	
6	0	0	0	0	1	511	509	519	32	0	
7	0	0	0	0	0	512	509	514	32	0	
8	0	0	0	0	0	512	511	508	31	0	
9	0	0	0	0	0	515	509	509	31	0	
10	0	0	0	0	0	512	510	509	31	0	
11	0	0	0	0	0	512	511	511	31	0	
12	0	0	0	0	0	515	508	512	32	0	
13	0	0	0	0	0	515	511	508	31	0	
14	0	0	0	0	1	514	512	509	31	0	
15	0	0	0	0	0	512	512	510	31	0	
0	0	0	0	0	0	513	511	509	31	0	
1	0	0	0	0	0	514	507	510	32	0	
2	0	0	0	0	0	515	508	509	32	0	
3	0	0	0	0	0	514	509	511	31	0	
4	0	0	0	0	0	517	507	509	31	0	
5	0	0	0	0	0	517	507	506	31	0	
6	0	0	0	0	1	515	510	510	31	0	
7	0	0	0	0	0	517	508	511	32	0	
8	0	0	0	0	0	513	509	512	32	0	
9	0	0	0	0	0	513	510	515	32	0	
10	0	0	0	0	0	512	509	516	32	0	
11	0	0	0	0	0	511	511	512	32	0	
12	0	0	0	0	0	514	510	513	32	0	
13	0	0	0	0	0	516	511	512	31	0	
14	0	0	0	0	1	514	512	508	32	0	
15	0	0	0	0	0	518	509	508	31	0	
0	0	0	0	0	0	516	511	510	31	0	
1	0	0	0	0	0	512	511	513	32	0	
2	0	0	0	0	0	511	508	510	32	0	
3	0	0	0	0	0	511	507	509	32	0	
4	0	0	0	0	0	512	509	511	32	0	
5	0	0	0	0	0	510	510	517	32	0	
6	0	0	0	0	1	513	509	516	31	0	
7	0	0	0	0	0	511	511	514	31	0	
8	0	0	0	0	0	514	515	510	31	0	
9	0	0	0	0	0	515	512	509	31	0	
10	0	0	0	0	0	513	512	511	31	0	
11	0	0	0	0	0	516	509	511	31	0	
12	0	0	0	0	0	517	509	511	32	0	
13	0	0	0	0	0	513	510	511	32	0	
14	0	0	0	0	0	515	510	508	32	0	
15	0	0	0	0	0	516	508	510	32	0	
0	0	0	0	0	0	514	510	510	31	0	
1	0	0	0	0	0	512	509	510	31	0	
2	0	0	0	0	0	513	506	506	32	0	
3	0	0	0	0	0	515	506	505	32	0	
4	0	0	0	0	0	514	509	510	31	0	
5	0	0	0	0	0	514	511	511	32	0	
6	0	0	0	0	0	515	510	513	32	0	
7	0	0	0	0	0	514	512	514	32	0	
8	0	0	0	0	0	516	508	513	32	0	
9	0	0	0	0	0	517	512	514	32	0	
10	0	0	0	0	0	515	512	513	32	0	
11	0	0	0	0	0	513	509	511	32	0	
12	0	0	0	0	0	512	509	513	32	0	
13	0	0	0	0	0	511	507	512	32	0	
14	0	0	0	0	0	512	507	512	31	0	
15	0	0	0	0	0	514	508	509	31	0	
0	0	0	0	0	0	514	509	509	31	0	
1	0	0	0	0	0	513	506	513	31	0	
2	0	0	0	0	0	510	509	505	32	0	
3	0	0	0	0	0	511	506	508	32	0	
4	0	0	0	0	0	511	506	508	32	0	
5	0	0	0	0	0	512	510	510	32	0	
6	0	0	0	0	1	515	508	512	31	0	
7	0	0	0	0	0	514	511	510	31	0	
8	0	0	0	0	0	516	510	511	31	0	
9	0	0	0	0	0	515	511	512	31	0	
10	0	0	0	0	0	517	512	514	32	0	
11	0	0	0	0	0	515	511	513	32	0	
12	0	0	0	0	0	515	510	511	32	0	
13	0	0	0	0	0	515	512	512	32	0	
14	0	0	0	0	1	513	512	511	32	0	
15	0	0	0	0	0	515	511	507	32	0	
0	0	0	0	0	0	513	511	508	31	0	
1	0	0	0	0	0	511	511	508	31	0	
2	0	0	0	0	0	510	511	510	32	0	
3	0	0	0	0	0	510	510	511	32	0	
4	0	0	0	0	0	513	509	508	32	0	
5	0	0	0	0	0	515	512	507	31	0	
6	0	0	0	0	1	516	510	509	32	0	
7	0	0	0	0	0	515	508	511	32	0	
8	0	0	0	0	0	514	508	514	31	0	
9	0	0	0	0	0	513	507	514	31	0	
10	0	0	0	0	0	515	508	513	32	0	
11	0	0	0	0	0	516	511	510	31	0	
12	0	0	0	0	0	515	509	509	31	0	
13	0	0	0	0	0	516	507	509	32	0	
14	0	0	0	0	1	515	507	510	32	0	
15	0	0	0	0	0	514	508	509	31	0	
0	0	0	0	0	0	512	509	508	32	0	
1	0	0	0	0	0	511	512	512	31	0	
2	0	0	0	0	0	509	513	511	32	0	
3	0	0	0	0	0	511	509	511	32	0	
4	0	0	0	0	0	512	512	510	32	0	
5	0	0	0	0	0	512	510	510	32	0	
6	0	0	0	0	1	511	508	509	31	0	
7	0	0	0	0	0	515	510	507	31	0	
8	0	0	0	0	0	517	509	507	31	0	
9	0	0	0	0	0	516	509	510	32	0	
10	0	0	0	0	0	515	508	512	31	0	
11	0	0	0	0	0	517	508	518	32	0	
12	0	0	0	0	0	516	508	513	31	0	
13	0	0	0	0	0	511	507	512	31	0	
14	0	0	0	0	1	513	510	512	31	0	
15	0	0	0	0	0	515	511	510	31	0	
0	0	0	0	0	0	514	510	513	32	0	
1	0	0	0	0	0	515	511	513	32	0	
2	0	0	0	0	0	512	513	511	32	0	
3	0	0	0	0	0	513	509	510	32	0	
4	0	0	0	0	0	513	512	509	31	0	
5	0	0	0	0	0	513	511	512	32	0	
6	0	0	0	0	1	513	509	511	32	0	
7	0	0	0	0	0	516	508	508	32	0	
8	0	0	0	0	0	514	506	509	31	0	
9	0	0	0	0	0	512	507	512	31	0	
10	0	0	0	0	0	512	511	512	31	0	
11	0	0	0	0	0	515	508	510	31	0	
12	0	0	0	0	0	515	508	513	32	0	
13	0	0	0	0	0	513	508	515	32	0	
14	0	0	0	0	1	515	509	515	32	0	
15	0	0	0	0	0	513	510	511	32	0	
0	0	0	0	0	0	514	510	513	32	0	
1	0	0	0	0	0	513	509	512	31	0	
2	0	0	0	0	0	512	510	515	32	0	
3	0	0	0	0	0	514	512	513	31	0	
4	0	0	0	0	0	516	510	510	31	0	
5	0	0	0	0	0	514	510	509	31	0	
6	0	0	0	0	1	513	511	510	32	0	
7	0	0	0	0	0	513	512	508	31	0	
8	0	0	0	0	0	515	510	511	31	0	
9	0	0	0	0	0	515	509	511	31	0	
10	0	0	0	0	0	513	510	512	31	0	
11	0	0	0	0	0	516	508	514	31	0	
12	0	0	0	0	0	513	508	515	31	0	
13	0	0	0	0	0	515	509	512	31	0	
14	0	0	0	0	1	513	511	511	31	0	
15	0	0	0	0	0	513	511	513	32	0	
0	0	0	0	0	0	513	508	515	32	0	
1	0	0	0	0	0	511	509	511	31	0	
2	0	0	0	0	0	513	511	508	31	0	
3	0	0	0	0	0	513	511	509	32	0	
4	0	0	0	0	0	512	506	513	32	0	
5	0	0	0	0	0	512	508	511	32	0	
6	0	0	0	0	1	512	511	508	32	0	
7	0	0	0	0	0	515	510	511	32	0	
8	0	0	0	0	0	516	506	510	31	0	
9	0	0	0	0	0	516	508	510	32	0	
10	0	0	0	0	0	516	508	512	31	0	
11	0	0	0	0	0	515	510	512	31	0	
12	0	0	0	0	0	513	510	516	32	0	
13	0	0	0	0	0	514	510	512	32	0	
14	0	0	0	0	1	514	509	512	32	0	
15	0	0	0	0	0	512	510	512	31	0	
0	0	0	0	0	0	513	512	517	32	0	
1	0	0	0	0	0	514	510	515	32	0	
2	0	0	0	0	0	510	510	513	32	0	
3	0	0	0	0	0	512	512	508	31	0	
4	0	0	0	0	0	513	510	505	31	0	
5	0	0	0	0	0	511	510	509	31	0	
6	0	0	0	0	0	512	511	508	31	0	
7	0	0	0	0	0	515	511	510	31	0	
8	0	0	0	0	0	516	511	511	31	0	
9	0	0	0	0	0	514	507	513	32	0	
10	0	0	0	0	0	513	508	512	32	0	
11	0	0	0	0	0	515	507	512	32	0	
12	0	0	0	0	0	516	508	512	32	0	
13	0	0	0	0	0	514	509	513	32	0	
14	0	0	0	0	1	511	507	513	32	0	
15	0	0	0	0	0	514	512	512	31	0	
0	0	0	0	0	0	514	514	512	32	0	
1	0	0	0	0	0	514	514	515	32	0	
2	0	0	0	0	0	514	513	515	32	0	
3	0	0	0	0	0	515	511	513	32	0	
4	0	0	0	0	0	513	510	512	32	0	
5	0	0	0	0	0	513	509	511	32	0	
6	0	0	0	0	1	514	508	511	32	0	
7	0	0	0	0	0	514	508	509	32	0	
8	0	0	0	0	0	514	509	506	31	0	
9	0	0	0	0	0	515	509	509	31	0	
10	0	0	0	0	0	513	508	509	31	0	
11	0	0	0	0	0	515	506	513	32	0	
12	0	0	0	0	0	516	508	515	32	0	
13	0	0	0	0	0	515	510	512	32	0	
14	0	0	0	0	1	512	511	515	32	0	
15	0	0	0	0	0	513	511	516	32	0	
0	0	0	0	0	0	512	515	516	31	0	
1	0	0	0	0	0	510	512	512	31	0	
2	0	0	0	0	0	509	511	512	31	0	
3	0	0	0	0	0	514	510	510	32	0	
4	0	0	0	0	0	512	508	507	31	0	
5	0	0	0	0	0	516	510	508	32	0	
6	0	0	0	0	1	517	509	511	32	0	
7	0	0	0	0	0	514	508	509	31	0	
8	0	0	0	0	0	517	509	510	32	0	
9	0	0	0	0	0	514	509	509	32	0	
10	0	0	0	0	0	514	510	508	31	0	
11	0	0	0	0	0	517	511	510	31	0	
12	0	0	0	0	0	513	512	512	31	0	
13	0	0	0	0	0	514	511	513	31	0	
14	0	0	0	0	1	514	509	512	31	0	
15	0	0	0	0	0	514	507	513	32	0	
0	0	0	0	0	0	515	507	513	32	0	
1	0	0	0	0	0	512	508	513	32	0	
2	0	0	0	0	0	514	510	509	32	0	
3	0	0	0	0	0	513	510	509	31	0	
4	0	0	0	0	0	513	511	510	31	0	
5	0	0	0	0	0	515	511	510	31	0	
6	0	0	0	0	1	514	512	508	31	0	
7	0	0	0	0	0	512	512	510	32	0	
8	0	0	0	0	0	511	510	511	32	0	
9	0	0	0	0	0	513	511	512	31	0	
10	0	0	0	0	0	510	512	510	31	0	
11	0	0	0	0	0	510	509	514	32	0	
12	0	0	0	0	0	514	508	512	31	0	
13	0	0	0	0	0	514	506	512	31	0	
14	0	0	0	0	1	516	508	512	32	0	
15	0	0	0	0	0	516	508	511	32	0	
0	0	0	0	0	0	515	507	513	32	0	
1	0	0	0	0	0	514	507	513	31	0	
2	0	0	0	0	0	513	508	509	31	0	
3	0	0	0	0	0	515	509	510	31	0	
4	0	0	0	0	0	516	511	508	31	0	
5	0	0	0	0	0	517	514	506	31	0	
6	0	0	0	0	1	514	516	508	31	0	
7	0	0	0	0	0	514	515	511	32	0	
8	0	0	0	0	0	515	513	511	32	0	
9	0	0	0	0	0	513	513	512	32	0	
10	0	0	0	0	0	515	510	510	32	0	
11	0	0	0	0	0	515	506	509	32	0	
12	0	0	0	0	0	513	507	511	31	0	
13	0	0	0	0	0	509	508	512	31	0	
14	0	0	0	0	1	512	504	513	31	0	
15	0	0	0	0	0	515	509	510	31	0	
0	0	0	0	0	0	514	507	511	31	0	
1	0	0	0	0	0	513	508	514	31	0	
2	0	0	0	0	0	514	510	515	32	0	
3	0	0	0	0	0	514	509	515	31	0	
4	0	0	0	0	0	516	509	512	32	0	
5	0	0	0	0	0	511	511	513	32	0	
6	0	0	0	0	1	512	512	511	32	0	
7	0	0	0	0	0	515	513	508	32	0	
8	0	0	0	0	0	516	515	508	31	0	
9	0	0	0	0	0	518	512	508	31	0	
10	0	0	0	0	0	516	511	509	32	0	
11	0	0	0	0	0	515	511	509	32	0	
12	0	0	0	0	0	516	510	510	32	0	
13	0	0	0	0	0	512	509	511	32	0	
14	0	0	0	0	1	511	508	513	31	0	
15	0	0	0	0	0	510	508	514	31	0	
0	0	0	0	0	0	515	508	513	32	0	
1	0	0	0	0	0	512	507	513	32	0	
2	0	0	0	0	0	513	508	512	32	0	
3	0	0	0	0	0	515	509	516	32	0	
4	0	0	0	0	0	513	509	515	32	0	
5	0	0	0	0	0	514	508	512	31	0	
6	0	0	0	0	0	515	508	509	31	0	
7	0	0	0	0	0	514	508	509	31	0	
8	0	0	0	0	0	512	510	511	31	0	
9	0	0	0	0	0	511	510	511	32	0	
10	0	0	0	0	0	512	512	508	32	0	
11	0	0	0	0	0	512	511	509	32	0	
12	0	0	0	0	0	515	509	506	32	0	
13	0	0	0	0	0	515	510	508	31	0	
14	0	0	0	0	0	512	512	509	32	0	
15	0	0	0	0	0	513	507	510	32	0	
0	0	0	0	0	0	515	506	512	32	0	
1	0	0	0	0	0	518	507	512	32	0	
2	0	0	0	0	0	513	510	514	32	0	
3	0	0	0	0	0	511	511	513	31	0	
4	0	0	0	0	0	512	513	518	31	0	
5	0	0	0	0	0	513	512	515	31	0	
6	0	0	0	0	0	515	510	513	31	0	
7	0	0	0	0	0	515	507	510	32	0	
8	0	0	0	0	0	513	507	511	32	0	
9	0	0	0	0	0	512	510	511	31	0	
10	0	0	0	0	0	512	510	511	32	0	
11	0	0	0	0	0	512	512	511	32	0	
12	0	0	0	0	0	512	510	509	31	0	
13	0	0	0	0	0	511	510	510	31	0	
14	0	0	0	0	1	514	511	508	31	0	
15	0	0	0	0	0	514	510	511	31	0	
0	0	0	0	0	0	515	510	509	32	0	
1	0	0	0	0	0	516	508	512	32	0	
2	0	0	0	0	0	516	511	513	32	0	
3	0	0	0	0	0	516	510	513	31	0	
4	0	0	0	0	0	516	511	513	32	0	
5	0	0	0	0	0	514	511	512	31	0	
6	0	0	0	0	1	515	511	511	32	0	
7	0	0	0	0	0	512	513	509	32	0	
8	0	0	0	0	0	514	513	509	32	0	
9	0	0	0	0	0	513	513	509	32	0	
10	0	0	0	0	0	512	508	511	32	0	
11	0	0	0	0	0	512	511	513	32	0	
12	0	0	0	0	0	511	508	510	31	0	
13	0	0	0	0	0	514	505	512	31	0	
14	0	0	0	0	1	515	505	510	31	0	
15	0	0	0	0	0	514	505	510	31	0	
0	0	0	0	0	0	514	507	512	32	0	
1	0	0	0	0	0	515	506	514	32	0	
2	0	0	0	0	0	512	508	514	32	0	
3	0	0	0	0	0	513	513	514	31	0	
4	0	0	0	0	0	512	512	513	32	0	
5	0	0	0	0	0	514	514	510	32	0	
6	0	0	0	0	1	516	510	510	32	0	
7	0	0	0	0	0	515	512	512	32	0	
8	0	0	0	0	0	516	510	512	31	0	
9	0	0	0	0	0	511	509	511	31	0	
10	0	0	0	0	0	511	511	506	31	0	
11	0	0	0	0	0	513	511	508	31	0	
12	0	0	0	0	0	513	510	508	31	0	
13	0	0	0	0	0	513	512	507	31	0	
14	0	0	0	0	1	516	509	509	31	0	
15	0	0	0	0	0	513	508	513	32	0	
0	0	0	0	0	0	512	510	512	32	0	
1	0	0	0	0	0	515	508	514	32	0	
2	0	0	0	0	0	515	508	512	31	0	
3	0	0	0	0	0	511	511	508	31	0	
4	0	0	0	0	0	513	512	513	31	0	
5	0	0	0	0	0	512	509	514	31	0	
6	0	0	0	0	1	515	509	512	31	0	
7	0	0	0	0	0	518	507	514	32	0	
8	0	0	0	0	0	512	505	513	32	0	
9	0	0	0	0	0	513	508	512	32	0	
10	0	0	0	0	0	512	510	509	31	0	
11	0	0	0	0	0	515	510	506	32	0	
12	0	0	0	0	0	514	509	510	31	0	
13	0	0	0	0	0	516	508	512	32	0	
14	0	0	0	0	1	513	510	510	32	0	
15	0	0	0	0	0	511	509	512	32	0	
0	0	0	0	0	0	513	511	514	32	0	
1	0	0	0	0	0	513	508	513	31	0	
2	0	0	0	0	0	515	508	510	31	0	
3	0	0	0	0	0	515	508	511	31	0	
4	0	0	0	0	0	514	507	510	32	0	
5	0	0	0	0	0	515	509	512	31	0	
6	0	0	0	0	1	514	512	510	31	0	
7	0	0	0	0	0	514	508	511	32	0	
8	0	0	0	0	0	514	512	511	31	0	
9	0	0	0	0	0	513	512	511	31	0	
10	0	0	0	0	0	510	511	514	32	0	
11	0	0	0	0	0	511	513	511	31	0	
12	0	0	0	0	0	512	510	510	32	0	
13	0	0	0	0	0	513	510	510	32	0	
14	0	0	0	0	1	517	507	509	32	0	
15	0	0	0	0	0	514	508	509	32	0	
0	0	0	0	0	0	514	509	510	31	0	
1	0	0	0	0	0	513	509	512	32	0	
2	0	0	0	0	0	516	509	511	31	0	
3	0	0	0	0	0	515	512	512	31	0	
4	0	0	0	0	0	517	508	507	32	0	
5	0	0	0	0	0	515	510	511	31	0	
6	0	0	0	0	1	513	512	513	31	0	
7	0	0	0	0	0	513	509	511	31	0	
8	0	0	0	0	0	514	512	512	32	0	
9	0	0	0	0	0	513	511	513	32	0	
10	0	0	0	0	0	511	510	513	31	0	
11	0	0	0	0	0	511	508	512	32	0	
12	0	0	0	0	0	513	510	510	31	0	
13	0	0	0	0	0	513	510	509	32	0	
14	0	0	0	0	1	512	510	512	31	0	
15	0	0	0	0	0	515	508	512	32	0	
0	0	0	0	0	0	515	509	511	31	0	
1	0	0	0	0	0	518	510	509	32	0	
2	0	0	0	0	0	514	509	510	32	0	
3	0	0	0	0	0	516	511	510	32	0	
4	0	0	0	0	0	516	508	512	32	0	
5	0	0	0	0	0	513	508	514	31	0	
6	0	0	0	0	1	511	508	513	31	0	
7	0	0	0	0	0	511	507	515	32	0	
8	0	0	0	0	0	512	510	510	31	0	
9	0	0	0	0	0	514	512	510	32	0	
10	0	0	0	0	0	518	512	511	32	0	
11	0	0	0	0	0	518	510	509	32	0	
12	0	0	0	0	0	514	509	510	31	0	
13	0	0	0	0	0	514	508	509	31	0	
14	0	0	0	0	0	514	508	510	31	0	
15	0	0	0	0	0	512	509	508	32	0	
0	0	0	0	0	0	511	505	510	32	0	
1	0	0	0	0	0	515	508	511	31	0	
2	0	0	0	0	0	517	507	508	31	0	
3	0	0	0	0	0	514	511	511	31	0	
4	0	0	0	0	0	513	508	515	31	0	
5	0	0	0	0	0	512	512	514	32	0	
6	0	0	0	0	1	513	511	514	32	0	
7	0	0	0	0	0	513	509	514	32	0	
8	0	0	0	0	0	513	512	515	32	0	
9	0	0	0	0	0	515	511	512	31	0	
10	0	0	0	0	0	516	510	511	32	0	
11	0	0	0	0	0	513	512	511	31	0	
12	0	0	0	0	0	512	511	511	31	0	
13	0	0	0	0	0	514	512	510	32	0	
14	0	0	0	0	1	513	510	507	32	0	
15	0	0	0	0	0	513	509	509	32	0	
0	0	0	0	0	0	515	510	508	31	0	
1	0	0	0	0	0	513	510	512	31	0	
2	0	0	0	0	0	513	509	510	32	0	
3	0	0	0	0	0	511	511	511	32	0	
4	0	0	0	0	0	514	511	514	31	0	
5	0	0	0	0	0	513	509	512	31	0	
6	0	0	0	0	1	515	509	512	32	0	
7	0	0	0	0	0	516	508	515	32	0	
8	0	0	0	0	0	515	509	515	32	0	
9	0	0	0	0	0	515	512	515	32	0	
10	0	0	0	0	0	515	514	513	32	0	
11	0	0	0	0	0	514	511	514	32	0	
12	0	0	0	0	0	514	509	510	32	0	
13	0	0	0	0	0	516	508	508	32	0	
14	0	0	0	0	1	515	510	507	31	0	
15	0	0	0	0	0	512	509	507	31	0	
0	0	0	0	0	0	512	510	511	31	0	
1	0	0	0	0	0	513	511	507	31	0	
2	0	0	0	0	0	511	508	510	31	0	
3	0	0	0	0	0	512	508	510	31	0	
4	0	0	0	0	0	516	510	511	32	0	
5	0	0	0	0	0	514	510	511	31	0	
6	0	0	0	0	1	513	508	511	32	0	
7	0	0	0	0	0	516	507	513	32	0	
8	0	0	0	0	0	515	508	515	32	0	
9	0	0	0	0	0	513	508	514	31	0	
10	0	0	0	0	0	513	509	511	31	0	
11	0	0	0	0	0	513	513	512	31	0	
12	0	0	0	0	0	514	510	509	31	0	
13	0	0	0	0	0	515	508	509	31	0	
14	0	0	0	0	1	511	510	509	32	0	
15	0	0	0	0	0	513	511	510	31	0	
0	0	0	0	0	0	512	511	510	32	0	
1	0	0	0	0	0	511	511	510	32	0	
2	0	0	0	0	0	511	507	511	32	0	
3	0	0	0	0	0	512	508	512	32	0	
4	0	0	0	0	0	512	510	509	31	0	
5	0	0	0	0	0	517	511	512	31	0	
6	0	0	0	0	1	515	510	511	32	0	
7	0	0	0	0	0	515	510	511	32	0	
8	0	0	0	0	0	512	507	511	31	0	
9	0	0	0	0	0	515	505	514	32	0	
10	0	0	0	0	0	515	508	514	32	0	
11	0	0	0	0	0	514	510	510	32	0	
12	0	0	0	0	0	518	510	511	31	0	
13	0	0	0	0	0	512	512	510	31	0	
14	0	0	0	0	1	512	509	509	31	0	
15	0	0	0	0	0	511	510	510	31	0	
0	0	0	0	0	0	511	511	514	32	0	
1	0	0	0	0	0	511	509	511	32	0	
2	0	0	0	0	0	512	510	513	32	0	
3	0	0	0	0	0	511	512	510	31	0	
4	0	0	0	0	0	515	511	511	32	0	
5	0	0	0	0	0	515	510	510	31	0	
6	0	0	0	0	1	516	513	511	31	0	
7	0	0	0	0	0	516	511	511	32	0	
8	0	0	0	0	0	518	510	514	32	0	
9	0	0	0	0	0	515	512	513	32	0	
10	0	0	0	0	0	512	510	512	32	0	
11	0	0	0	0	0	513	510	511	31	0	
12	0	0	0	0	0	513	512	511	31	0	
13	0	0	0	0	0	512	508	511	31	0	
14	0	0	0	0	1	514	509	505	31	0	
15	0	0	0	0	0	514	506	508	32	0	
0	0	0	0	0	0	512	508	508	32	0	
1	0	0	0	0	0	514	510	510	32	0	
2	0	0	0	0	0	515	510	507	32	0	
3	0	0	0	0	0	516	508	509	31	0	
4	0	0	0	0	0	516	510	511	31	0	
5	0	0	0	0	0	515	510	512	31	0	
6	0	0	0	0	1	513	508	511	31	0	
7	0	0	0	0	0	513	511	511	31	0	
8	0	0	0	0	0	511	511	513	31	0	
9	0	0	0	0	0	511	511	514	32	0	
10	0	0	0	0	0	513	512	512	32	0	
11	0	0	0	0	0	513	511	513	32	0	
12	0	0	0	0	0	515	511	511	31	0	
13	0	0	0	0	0	517	511	511	31	0	
14	0	0	0	0	1	513	507	511	32	0	
15	0	0	0	0	0	515	507	512	32	0	
0	0	0	0	0	0	510	509	510	32	0	
1	0	0	0	0	0	512	507	510	32	0	
2	0	0	0	0	0	515	508	510	32	0	
3	0	0	0	0	0	511	508	511	32	0	
4	0	0	0	0	0	513	510	510	32	0	
5	0	0	0	0	0	513	512	508	31	0	
6	0	0	0	0	0	514	511	511	31	0	
7	0	0	0	0	0	513	509	512	32	0	
8	0	0	0	0	0	513	510	512	31	0	
9	0	0	0	0	0	515	512	510	32	0	
10	0	0	0	0	0	516	508	512	31	0	
11	0	0	0	0	0	518	510	510	31	0	
12	0	0	0	0	0	514	511	510	31	0	
13	0	0	0	0	0	515	510	510	31	0	
14	0	0	0	0	0	513	511	514	31	0	
15	0	0	0	0	0	511	509	514	32	0	
0	0	0	0	0	0	511	510	512	32	0	
1	0	0	0	0	0	511	509	511	32	0	
2	0	0	0	0	0	511	511	510	31	0	
3	0	0	0	0	0	512	510	509	31	0	
4	0	0	0	0	0	513	507	512	32	0	
5	0	0	0	0	0	512	508	510	31	0	
6	0	0	0	0	1	515	510	509	32	0	
7	0	0	0	0	0	518	508	507	31	0	
8	0	0	0	0	0	515	511	509	31	0	
9	0	0	0	0	0	515	510	511	31	0	
10	0	0	0	0	0	515	511	511	31	0	
11	0	0	0	0	0	515	513	511	31	0	
12	0	0	0	0	0	515	511	515	31	0	
13	0	0	0	0	0	514	510	516	32	0	
14	0	0	0	0	1	513	506	514	32	0	
15	0	0	0	0	0	512	507	510	32	0	
0	0	0	0	0	0	513	509	510	32	0	
1	0	0	0	0	0	518	509	508	32	0	
2	0	0	0	0	0	515	513	511	32	0	
3	0	0	0	0	0	513	511	509	32	0	
4	0	0	0	0	0	515	508	510	32	0	
5	0	0	0	0	0	512	509	508	32	0	
6	0	0	0	0	1	513	512	509	32	0	
7	0	0	0	0	0	514	510	510	31	0	
8	0	0	0	0	0	513	508	512	32	0	
9	0	0	0	0	0	513	506	512	32	0	
10	0	0	0	0	0	516	507	513	32	0	
11	0	0	0	0	0	515	509	513	32	0	
12	0	0	0	0	0	516	513	513	32	0	
13	0	0	0	0	0	516	512	513	32	0	
14	0	0	0	0	1	513	508	513	32	0	
15	0	0	0	0	0	512	513	511	31	0	
0	0	0	0	0	0	514	512	509	31	0	
1	0	0	0	0	0	511	511	510	31	0	
2	0	0	0	0	0	513	509	510	32	0	
3	0	0	0	0	0	513	510	508	31	0	
4	0	0	0	0	0	515	511	508	31	0	
5	0	0	0	0	0	515	510	506	32	0	
6	0	0	0	0	1	515	505	508	32	0	
7	0	0	0	0	0	513	508	511	32	0	
8	0	0	0	0	0	512	506	513	32	0	
9	0	0	0	0	0	512	510	513	32	0	
10	0	0	0	0	0	514	510	513	32	0	
11	0	0	0	0	0	515	512	510	31	0	
12	0	0	0	0	0	514	510	513	31	0	
13	0	0	0	0	0	515	511	512	32	0	
14	0	0	0	0	1	514	512	511	32	0	
15	0	0	0	0	0	515	510	512	32	0	
0	0	0	0	0	0	514	509	515	32	0	
1	0	0	0	0	0	513	510	514	32	0	
2	0	0	0	0	0	511	510	514	32	0	
3	0	0	0	0	0	513	510	511	32	0	
4	0	0	0	0	0	515	510	510	32	0	
5	0	0	0	0	0	515	510	509	32	0	
6	0	0	0	0	1	510	513	508	31	0	
7	0	0	0	0	0	511	511	508	31	0	
8	0	0	0	0	0	512	506	510	31	0	
9	0	0	0	0	0	513	509	510	32	0	
10	0	0	0	0	0	513	510	511	32	0	
11	0	0	0	0	0	516	508	512	32	0	
12	0	0	0	0	0	516	510	513	32	0	
13	0	0	0	0	0	515	507	512	32	0	
14	0	0	0	0	1	515	507	512	32	0	
15	0	0	0	0	0	515	507	512	31	0	
0	0	0	0	0	0	515	508	510	32	0	
1	0	0	0	0	0	517	511	512	32	0	
2	0	0	0	0	0	514	512	512	32	0	
3	0	0	0	0	0	511	513	510	31	0	
4	0	0	0	0	0	515	514	507	31	0	
5	0	0	0	0	0	511	511	509	31	0	
6	0	0	0	0	1	512	507	508	31	0	
7	0	0	0	0	0	514	505	509	31	0	
8	0	0	0	0	0	513	506	507	31	0	
9	0	0	0	0	0	511	505	508	31	0	
10	0	0	0	0	0	512	508	509	31	0	
11	0	0	0	0	0	516	508	508	31	0	
12	0	0	0	0	0	517	509	513	31	0	
13	0	0	0	0	0	514	512	511	31	0	
14	0	0	0	0	1	512	511	510	31	0	
15	0	0	0	0	0	515	511	510	32	0	
0	0	0	0	0	0	513	511	510	31	0	
1	0	0	0	0	0	512	512	512	31	0	
2	0	0	0	0	0	514	511	512	32	0	
3	0	0	0	0	0	513	510	512	32	0	
4	0	0	0	0	0	514	510	510	32	0	
5	0	0	0	0	0	514	508	508	32	0	
6	0	0	0	0	1	513	510	508	32	0	
7	0	0	0	0	0	512	511	512	31	0	
8	0	0	0	0	0	513	510	511	32	0	
9	0	0	0	0	0	515	510	508	31	0	
10	0	0	0	0	0	512	508	509	31	0	
11	0	0	0	0	0	514	509	514	32	0	
12	0	0	0	0	0	514	509	512	32	0	
13	0	0	0	0	0	516	510	512	32	0	
14	0	0	0	0	1	514	513	513	32	0	
15	0	0	0	0	0	514	511	515	32	0	
0	0	0	0	0	0	515	510	511	31	0	
1	0	0	0	0	0	516	510	512	31	0	
2	0	0	0	0	0	515	508	515	32	0	
3	0	0	0	0	0	515	512	515	32	0	
4	0	0	0	0	0	514	512	512	32	0	
5	0	0	0	0	0	511	511	509	32	0	
6	0	0	0	0	1	510	510	510	32	0	
7	0	0	0	0	0	512	510	512	32	0	
8	0	0	0	0	0	514	512	509	32	0	
9	0	0	0	0	0	511	512	513	32	0	
10	0	0	0	0	0	515	511	510	32	0	
11	0	0	0	0	0	516	510	511	32	0	
12	0	0	0	0	0	517	510	512	32	0	
13	0	0	0	0	0	514	511	511	31	0	
14	0	0	0	0	0	512	511	509	31	0	
15	0	0	0	0	0	514	508	511	32	0	
0	0	0	0	0	0	517	508	512	32	0	
1	0	0	0	0	0	518	507	511	32	0	
2	0	0	0	0	0	516	506	512	32	0	
3	0	0	0	0	0	517	508	511	32	0	
4	0	0	0	0	0	515	509	512	32	0	
5	0	0	0	0	0	514	508	512	31	0	
6	0	0	0	0	1	512	510	510	32	0	
7	0	0	0	0	0	515	514	509	31	0	
8	0	0	0	0	0	513	511	509	31	0	
9	0	0	0	0	0	511	510	511	31	0	
10	0	0	0	0	0	512	510	510	31	0	
11	0	0	0	0	0	513	510	508	31	0	
12	0	0	0	0	0	515	510	507	31	0	
13	0	0	0	0	0	515	509	505	31	0	
14	0	0	0	0	1	514	511	510	31	0	
15	0	0	0	0	0	516	511	512	31	0	
0	0	0	0	0	0	513	511	513	32	0	
1	0	0	0	0	0	512	513	515	32	0	
2	0	0	0	0	0	514	512	515	32	0	
3	0	0	0	0	0	513	511	514	32	0	
4	0	0	0	0	0	513	510	511	31	0	
5	0	0	0	0	0	511	507	512	32	0	
6	0	0	0	0	1	511	508	508	32	0	
7	0	0	0	0	0	515	509	507	32	0	
8	0	0	0	0	0	512	509	507	32	0	
9	0	0	0	0	0	512	510	508	31	0	
10	0	0	0	0	0	510	506	511	31	0	
11	0	0	0	0	0	510	508	511	31	0	
12	0	0	0	0	0	511	507	511	32	0	
13	0	0	0	0	0	513	507	512	32	0	
14	0	0	0	0	1	515	509	512	32	0	
15	0	0	0	0	0	515	510	514	32	0	
0	0	0	0	0	0	518	511	513	32	0	
1	0	0	0	0	0	513	511	514	32	0	
2	0	0	0	0	0	515	508	515	32	0	
3	0	0	0	0	0	516	510	512	32	0	
4	0	0	0	0	0	518	510	510	32	0	
5	0	0	0	0	0	514	510	510	31	0	
6	0	0	0	0	1	514	511	510	31	0	
7	0	0	0	0	0	515	512	510	31	0	
8	0	0	0	0	0	514	512	508	31	0	
9	0	0	0	0	0	513	511	509	31	0	
10	0	0	0	0	0	513	509	509	31	0	
11	0	0	0	0	0	515	510	510	31	0	
12	0	0	0	0	0	515	511	511	32	0	
13	0	0	0	0	0	516	510	510	31	0	
14	0	0	0	0	1	515	514	508	32	0	
15	0	0	0	0	0	514	513	513	31	0	
0	0	0	0	0	0	512	504	519	32	0	
1	0	0	0	0	0	511	507	515	32	0	
2	0	0	0	0	0	512	508	515	32	0	
3	0	0	0	0	0	512	509	511	31	0	
4	0	0	0	0	0	512	509	513	31	0	
5	0	0	0	0	0	513	510	511	31	0	
6	0	0	0	0	1	515	510	511	32	0	
7	0	0	0	0	0	513	508	511	32	0	
8	0	0	0	0	0	512	509	508	31	0	
9	0	0	0	0	0	514	510	509	32	0	
10	0	0	0	0	0	515	510	508	32	0	
11	0	0	0	0	0	514	511	508	32	0	
12	0	0	0	0	0	514	510	508	32	0	
13	0	0	0	0	0	515	508	508	31	0	
14	0	0	0	0	1	516	508	513	31	0	
15	0	0	0	0	0	515	508	511	32	0	
0	0	0	0	0	0	515	506	511	32	0	
1	0	0	0	0	0	515	509	514	32	0	
2	0	0	0	0	0	513	510	515	32	0	
3	0	0	0	0	0	511	510	513	32	0	
4	0	0	0	0	0	512	508	512	31	0	
5	0	0	0	0	0	513	510	513	31	0	
6	0	0	0	0	1	514	508	514	32	0	
7	0	0	0	0	0	513	511	511	32	0	
8	0	0	0	0	0	511	513	509	31	0	
9	0	0	0	0	0	516	513	505	31	0	
10	0	0	0	0	0	513	511	507	31	0	
11	0	0	0	0	0	512	504	511	31	0	
12	0	0	0	0	0	513	508	511	31	0	
13	0	0	0	0	0	512	511	511	32	0	
14	0	0	0	0	1	512	511	510	32	0	
15	0	0	0	0	0	513	513	511	31	0	
0	0	0	0	0	0	514	512	511	31	0	
1	0	0	0	0	0	515	511	512	31	0	
2	0	0	0	0	0	515	508	511	31	0	
3	0	0	0	0	0	514	511	510	32	0	
4	0	0	0	0	0	515	508	513	32	0	
5	0	0	0	0	0	515	513	511	31	0	
6	0	0	0	0	1	515	512	511	32	0	
7	0	0	0	0	0	514	505	512	32	0	
8	0	0	0	0	0	514	507	510	32	0	
9	0	0	0	0	0	514	512	511	31	0	
10	0	0	0	0	0	513	505	510	32	0	
11	0	0	0	0	0	510	510	512	32	0	
12	0	0	0	0	0	512	511	509	31	0	
13	0	0	0	0	0	512	512	511	31	0	
14	0	0	0	0	0	515	510	512	32	0	
15	0	0	0	0	0	515	508	511	31	0	
0	0	0	0	0	0	515	506	513	32	0	
1	0	0	0	0	0	515	509	512	32	0	
2	0	0	0	0	0	516	509	512	31	0	
3	0	0	0	0	0	515	508	511	31	0	
4	0	0	0	0	0	513	509	512	32	0	
5	0	0	0	0	0	515	508	513	32	0	
6	0	0	0	0	0	516	510	513	32	0	
7	0	0	0	0	0	513	509	515	32	0	
8	0	0	0	0	0	510	511	514	32	0	
9	0	0	0	0	0	511	511	510	32	0	
10	0	0	0	0	0	512	515	510	31	0	
11	0	0	0	0	0	515	514	508	31	0	
12	0	0	0	0	0	512	510	511	32	0	
13	0	0	0	0	0	513	508	509	31	0	
14	0	0	0	0	0	513	508	510	31	0	
15	0	0	0	0	0	515	509	511	31	0	
0	0	0	0	0	0	512	506	507	31	0	
1	0	0	0	0	0	513	507	511	31	0	
2	0	0	0	0	0	515	511	512	31	0	
3	0	0	0	0	0	515	510	515	32	0	
4	0	0	0	0	0	515	510	515	32	0	
5	0	0	0	0	0	512	509	515	32	0	
6	0	0	0	0	1	512	508	513	31	0	
7	0	0	0	0	0	512	510	512	32	0	
8	0	0	0	0	0	514	511	512	31	0	
9	0	0	0	0	0	515	509	510	32	0	
10	0	0	0	0	0	515	508	508	32	0	
11	0	0	0	0	0	513	510	507	32	0	
12	0	0	0	0	0	516	510	509	32	0	
13	0	0	0	0	0	514	513	508	32	0	
14	0	0	0	0	1	514	516	509	32	0	
15	0	0	0	0	0	510	509	515	32	0	
0	0	0	0	0	0	512	510	512	32	0	
1	0	0	0	0	0	513	509	511	32	0	
2	0	0	0	0	0	515	508	513	31	0	
3	0	0	0	0	0	515	510	512	31	0	
4	0	0	0	0	0	512	510	513	31	0	
5	0	0	0	0	0	512	508	513	31	0	
6	0	0	0	0	1	513	506	512	32	0	
7	0	0	0	0	0	517	508	510	32	0	
8	0	0	0	0	0	515	512	507	31	0	
9	0	0	0	0	0	515	513	510	31	0	
10	0	0	0	0	0	512	513	508	31	0	
11	0	0	0	0	0	512	512	513	32	0	
12	0	0	0	0	0	514	508	511	32	0	
13	0	0	0	0	0	515	506	509	32	0	
14	0	0	0	0	1	514	507	510	32	0	
15	0	0	0	0	0	510	508	512	32	0	
0	0	0	0	0	0	510	511	513	32	0	
1	0	0	0	0	0	513	513	512	31	0	
2	0	0	0	0	0	513	513	511	31	0	
3	0	0	0	0	0	515	512	512	31	0	
4	0	0	0	0	0	515	511	512	32	0	
5	0	0	0	0	0	515	508	513	32	0	
6	0	0	0	0	1	514	506	512	31	0	
7	0	0	0	0	0	517	508	511	31	0	
8	0	0	0	0	0	516	509	510	31	0	
9	0	0	0	0	0	514	509	513	32	0	
10	0	0	0	0	0	513	505	511	32	0	
11	0	0	0	0	0	513	508	512	32	0	
12	0	0	0	0	0	512	511	510	32	0	
13	0	0	0	0	0	513	513	509	32	0	
14	0	0	0	0	1	513	511	510	32	0	
15	0	0	0	0	0	515	510	511	32	0	
0	0	0	0	0	0	515	513	511	31	0	
1	0	0	0	0	0	516	513	511	31	0	
2	0	0	0	0	0	518	508	512	32	0	
3	0	0	0	0	0	508	508	513	31	0	
4	0	0	0	0	0	510	511	511	32	0	
5	0	0	0	0	0	513	509	510	31	0	
6	0	0	0	0	1	513	510	513	32	0	
7	0	0	0	0	0	513	507	511	31	0	
8	0	0	0	0	0	513	508	512	32	0	
9	0	0	0	0	0	513	508	509	31	0	
10	0	0	0	0	0	513	510	509	31	0	
11	0	0	0	0	0	514	509	510	32	0	
12	0	0	0	0	0	515	507	512	32	0	
13	0	0	0	0	0	515	511	508	31	0	
14	0	0	0	0	1	515	511	507	32	0	
15	0	0	0	0	0	512	509	508	31	0	
0	0	0	0	0	0	512	512	511	31	0	
1	0	0	0	0	0	512	513	513	32	0	
2	0	0	0	0	0	511	511	513	32	0	
3	0	0	0	0	0	514	510	513	32	0	
4	0	0	0	0	0	515	509	510	31	0	
5	0	0	0	0	0	516	509	511	31	0	
6	0	0	0	0	1	515	509	510	31	0	
7	0	0	0	0	0	513	508	510	31	0	
8	0	0	0	0	0	515	507	514	31	0	
9	0	0	0	0	0	514	509	508	32	0	
10	0	0	0	0	0	515	512	511	32	0	
11	0	0	0	0	0	515	509	511	32	0	
12	0	0	0	0	0	516	510	513	32	0	
13	0	0	0	0	0	512	512	513	32	0	
14	0	0	0	0	1	514	512	510	32	0	
15	0	0	0	0	0	514	514	508	31	0	
0	0	0	0	0	0	515	512	505	31	0	
1	0	0	0	0	0	512	512	506	32	0	
2	0	0	0	0	0	512	505	508	32	0	
3	0	0	0	0	0	513	504	514	32	0	
4	0	0	0	0	0	513	506	512	32	0	
5	0	0	0	0	0	514	509	512	32	0	
6	0	0	0	0	1	516	511	511	31	0	
7	0	0	0	0	0	516	504	514	32	0	
8	0	0	0	0	0	516	510	513	31	0	
9	0	0	0	0	0	515	510	512	31	0	
10	0	0	0	0	0	515	513	513	32	0	
11	0	0	0	0	0	514	508	514	32	0	
12	0	0	0	0	0	511	512	513	32	0	
13	0	0	0	0	0	513	509	510	32	0	
14	0	0	0	0	1	514	511	508	31	0	
15	0	0	0	0	0	515	512	509	32	0	
0	0	0	0	0	0	511	512	506	32	0	
1	0	0	0	0	0	511	511	510	32	0	
2	0	0	0	0	0	513	506	508	31	0	
3	0	0	0	0	0	513	503	511	32	0	
4	0	0	0	0	0	511	507	513	32	0	
5	0	0	0	0	0	513	509	513	31	0	
6	0	0	0	0	0	514	512	513	32	0	
7	0	0	0	0	0	516	512	511	31	0	
8	0	0	0	0	0	512	513	512	31	0	
9	0	0	0	0	0	515	511	514	31	0	
10	0	0	0	0	0	514	508	513	32	0	
11	0	0	0	0	0	515	506	513	32	0	
12	0	0	0	0	0	516	508	510	31	0	
13	0	0	0	0	0	515	507	510	31	0	
14	0	0	0	0	1	506	509	512	32	0	
15	0	0	0	0	0	508	511	509	31	0	
0	0	0	0	0	0	513	512	509	32	0	
1	0	0	0	0	0	511	513	511	31	0	
2	0	0	0	0	0	516	511	510	32	0	
3	0	0	0	0	0	518	508	510	32	0	
4	0	0	0	0	0	517	510	511	32	0	
5	0	0	0	0	0	515	510	510	31	0	
6	0	0	0	0	1	513	510	511	31	0	
7	0	0	0	0	0	513	510	515	32	0	
8	0	0	0	0	0	515	511	515	31	0	
9	0	0	0	0	0	515	508	515	32	0	
10	0	0	0	0	0	515	508	512	32	0	
11	0	0	0	0	0	513	508	512	31	0	
12	0	0	0	0	0	516	507	513	31	0	
13	0	0	0	0	0	514	509	512	31	0	
14	0	0	0	0	1	512	509	510	31	0	
15	0	0	0	0	0	511	510	511	32	0	
0	0	0	0	0	0	511	510	510	31	0	
1	0	0	0	0	0	512	513	510	32	0	
2	0	0	0	0	0	513	511	509	31	0	
3	0	0	0	0	0	513	509	508	32	0	
4	0	0	0	0	0	513	511	511	32	0	
5	0	0	0	0	0	514	510	513	31	0	
6	0	0	0	0	1	516	512	512	32	0	
7	0	0	0	0	0	516	510	515	32	0	
8	0	0	0	0	0	518	508	513	32	0	
9	0	0	0	0	0	514	509	510	32	0	
10	0	0	0	0	0	515	506	512	32	0	
11	0	0	0	0	0	513	510	514	31	0	
12	0	0	0	0	0	512	507	513	31	0	
13	0	0	0	0	0	513	507	510	31	0	
14	0	0	0	0	1	512	511	511	31	0	
15	0	0	0	0	0	512	510	509	31	0	
0	0	0	0	0	0	513	510	509	32	0	
1	0	0	0	0	0	515	508	512	32	0	
2	0	0	0	0	0	511	505	509	32	0	
3	0	0	0	0	0	512	509	511	32	0	
4	0	0	0	0	0	513	507	512	32	0	
5	0	0	0	0	0	515	512	512	31	0	
6	0	0	0	0	1	516	509	510	31	0	
7	0	0	0	0	0	514	512	512	32	0	
8	0	0	0	0	0	515	511	512	31	0	
9	0	0	0	0	0	515	513	514	32	0	
10	0	0	0	0	0	516	513	512	31	0	
11	0	0	0	0	0	514	512	511	31	0	
12	0	0	0	0	0	515	507	512	31	0	
13	0	0	0	0	0	516	509	513	31	0	
14	0	0	0	0	1	513	508	512	32	0	
15	0	0	0	0	0	515	510	511	31	0	
0	0	0	0	0	0	514	510	508	31	0	
1	0	0	0	0	0	513	512	509	32	0	
2	0	0	0	0	0	511	509	512	32	0	
3	0	0	0	0	0	512	510	513	32	0	
4	0	0	0	0	0	512	508	514	32	0	
5	0	0	0	0	0	511	510	512	32	0	
6	0	0	0	0	1	513	512	510	31	0	
7	0	0	0	0	0	515	514	510	31	0	
8	0	0	0	0	0	518	512	510	31	0	
9	0	0	0	0	0	515	509	509	32	0	
10	0	0	0	0	0	514	505	512	32	0	
11	0	0	0	0	0	514	508	514	32	0	
12	0	0	0	0	0	515	508	511	32	0	
13	0	0	0	0	0	517	508	510	32	0	
14	0	0	0	0	1	520	507	511	31	0	
15	0	0	0	0	0	515	507	516	32	0	
0	0	0	0	0	0	502	508	517	32	0	
1	0	0	0	0	0	509	508	512	32	0	
2	0	0	0	0	0	511	506	510	31	0	
3	0	0	0	0	0	513	508	509	31	0	
4	0	0	0	0	0	513	510	507	31	0	
5	0	0	0	0	0	512	510	508	31	0	
6	0	0	0	0	1	515	512	510	31	0	
7	0	0	0	0	0	513	512	512	31	0	
8	0	0	0	0	0	513	509	513	31	0	
9	0	0	0	0	0	514	509	515	31	0	
10	0	0	0	0	0	514	509	513	31	0	
11	0	0	0	0	0	513	510	512	31	0	
12	0	0	0	0	0	515	510	512	32	0	
13	0	0	0	0	0	514	512	511	32	0	
14	0	0	0	0	1	515	511	510	32	0	
15	0	0	0	0	0	515	510	513	32	0	
0	0	0	0	0	0	513	511	511	32	0	
1	0	0	0	0	0	515	510	508	31	0	
2	0	0	0	0	0	515	508	508	31	0	
3	0	0	0	0	0	514	509	507	31	0	
4	0	0	0	0	0	514	511	508	31	0	
5	0	0	0	0	0	514	508	506	31	0	
6	0	0	0	0	0	511	509	511	31	0	
7	0	0	0	0	0	512	509	511	32	0	
8	0	0	0	0	0	515	510	514	32	0	
9	0	0	0	0	0	514	510	513	32	0	
10	0	0	0	0	0	516	511	512	32	0	
11	0	0	0	0	0	515	510	508	31	0	
12	0	0	0	0	0	515	509	511	31	0	
13	0	0	0	0	0	513	508	513	32	0	
14	0	0	0	0	0	512	510	514	32	0	
15	0	0	0	0	0	514	510	513	32	0	
0	0	0	0	0	0	512	511	512	32	0	
1	0	0	0	0	0	513	513	509	31	0	
2	0	0	0	0	0	513	512	509	31	0	
3	0	0	0	0	0	512	512	508	31	0	
4	0	0	0	0	0	515	509	509	32	0	
5	0	0	0	0	0	515	511	508	32	0	
6	0	0	0	0	0	515	507	511	32	0	
7	0	0	0	0	0	512	504	512	32	0	
8	0	0	0	0	0	511	508	512	32	0	
9	0	0	0	0	0	515	508	510	31	0	
10	0	0	0	0	0	513	509	511	31	0	
11	0	0	0	0	0	515	510	515	32	0	
12	0	0	0	0	0	513	510	514	32	0	
13	0	0	0	0	0	515	510	514	32	0	
14	0	0	0	0	1	515	511	514	32	0	
15	0	0	0	0	0	515	510	511	32	0	
0	0	0	0	0	0	516	510	511	31	0	
1	0	0	0	0	0	512	513	511	31	0	
2	0	0	0	0	0	514	511	512	31	0	
3	0	0	0	0	0	512	511	512	31	0	
4	0	0	0	0	0	513	515	510	31	0	
5	0	0	0	0	0	513	509	510	32	0	
6	0	0	0	0	1	514	505	510	31	0	
7	0	0	0	0	0	514	507	510	31	0	
8	0	0	0	0	0	512	510	512	31	0	
9	0	0	0	0	0	512	509	508	31	0	
10	0	0	0	0	0	512	508	515	31	0	
11	0	0	0	0	0	515	507	513	31	0	
12	0	0	0	0	0	516	507	513	31	0	
13	0	0	0	0	0	517	508	513	32	0	
14	0	0	0	0	1	514	508	509	32	0	
15	0	0	0	0	0	513	511	511	31	0	
0	0	0	0	0	0	514	510	512	32	0	
1	0	0	0	0	0	513	512	509	31	0	
2	0	0	0	0	0	513	513	512	31	0	
3	0	0	0	0	0	511	511	511	31	0	
4	0	0	0	0	0	512	508	513	32	0	
5	0	0	0	0	0	511	509	511	32	0	
6	0	0	0	0	1	513	510	511	32	0	
7	0	0	0	0	0	513	508	511	31	0	
8	0	0	0	0	0	513	508	510	32	0	
9	0	0	0	0	0	513	513	508	31	0	
10	0	0	0	0	0	513	510	510	31	0	
11	0	0	0	0	0	515	508	511	31	0	
12	0	0	0	0	0	515	508	514	32	0	
13	0	0	0	0	0	515	509	512	32	0	
14	0	0	0	0	1	518	510	511	31	0	
15	0	0	0	0	0	514	508	510	32	0	
0	0	0	0	0	0	519	509	512	31	0	
1	0	0	0	0	0	519	511	509	32	0	
2	0	0	0	0	0	510	509	509	31	0	
3	0	0	0	0	0	512	511	509	32	0	
4	0	0	0	0	0	510	511	509	32	0	
5	0	0	0	0	0	512	511	509	32	0	
6	0	0	0	0	1	512	510	510	32	0	
7	0	0	0	0	0	514	510	512	32	0	
8	0	0	0	0	0	513	509	510	32	0	
9	0	0	0	0	0	515	508	510	31	0	
10	0	0	0	0	0	513	509	511	31	0	
11	0	0	0	0	0	511	511	513	31	0	
12	0	0	0	0	0	513	511	513	31	0	
13	0	0	0	0	0	516	508	515	32	0	
14	0	0	0	0	1	515	512	512	32	0	
15	0	0	0	0	0	514	508	512	32	0	
0	0	0	0	0	0	515	510	510	31	0	
1	0	0	0	0	0	514	510	512	31	0	
2	0	0	0	0	0	512	510	515	32	0	
3	0	0	0	0	0	513	510	512	32	0	
4	0	0	0	0	0	513	509	510	32	0	
5	0	0	0	0	0	516	509	512	31	0	
6	0	0	0	0	1	513	510	513	31	0	
7	0	0	0	0	0	514	512	510	31	0	
8	0	0	0	0	0	513	512	508	31	0	
9	0	0	0	0	0	515	512	507	31	0	
10	0	0	0	0	0	511	511	509	31	0	
11	0	0	0	0	0	515	506	508	32	0	
12	0	0	0	0	0	512	506	509	32	0	
13	0	0	0	0	0	512	507	512	32	0	
14	0	0	0	0	1	515	511	515	32	0	
15	0	0	0	0	0	513	509	515	32	0	
0	0	0	0	0	0	515	507	512	32	0	
1	0	0	0	0	0	516	510	511	32	0	
2	0	0	0	0	0	512	512	512	31	0	
3	0	0	0	0	0	513	510	510	32	0	
4	0	0	0	0	0	516	512	509	31	0	
5	0	0	0	0	0	513	511	511	32	0	
6	0	0	0	0	1	513	511	511	31	0	
7	0	0	0	0	0	512	510	508	32	0	
8	0	0	0	0	0	512	511	512	32	0	
9	0	0	0	0	0	513	510	510	31	0	
10	0	0	0	0	0	515	508	511	31	0	
11	0	0	0	0	0	516	509	512	31	0	
12	0	0	0	0	0	515	510	511	32	0	
13	0	0	0	0	0	516	511	509	31	0	
14	0	0	0	0	1	514	510	511	32	0	
15	0	0	0	0	0	516	509	512	32	0	
0	0	0	0	0	0	515	511	512	32	0	
1	0	0	0	0	0	514	509	511	31	0	
2	0	0	0	0	0	512	507	512	31	0	
3	0	0	0	0	0	511	509	511	32	0	
4	0	0	0	0	0	515	510	510	32	0	
5	0	0	0	0	0	511	508	511	32	0	
6	0	0	0	0	1	513	506	511	32	0	
7	0	0	0	0	0	514	510	511	32	0	
8	0	0	0	0	0	515	511	510	32	0	
9	0	0	0	0	0	518	514	510	32	0	
10	0	0	0	0	0	518	513	509	31	0	
11	0	0	0	0	0	511	511	512	32	0	
12	0	0	0	0	0	508	512	509	31	0	
13	0	0	0	0	0	515	506	511	31	0	
14	0	0	0	0	0	514	505	515	32	0	
15	0	0	0	0	0	514	506	518	32	0	
0	0	0	0	0	0	514	509	517	32	0	
1	0	0	0	0	0	512	511	513	32	0	
2	0	0	0	0	0	513	511	511	31	0	
3	0	0	0	0	0	513	511	508	31	0	
4	0	0	0	0	0	516	507	508	32	0	
5	0	0	0	0	0	514	506	510	32	0	
6	0	0	0	0	0	510	505	509	32	0	
7	0	0	0	0	0	512	509	510	32	0	
8	0	0	0	0	0	512	511	509	32	0	
9	0	0	0	0	0	513	511	508	31	0	
10	0	0	0	0	0	511	511	511	31	0	
11	0	0	0	0	0	513	512	510	31	0	
12	0	0	0	0	0	511	512	511	31	0	
13	0	0	0	0	0	514	512	510	31	0	
14	0	0	0	0	1	515	512	511	32	0	
15	0	0	0	0	0	517	511	511	32	0	
0	0	0	0	0	0	516	508	513	32	0	
1	0	0	0	0	0	516	508	512	32	0	
2	0	0	0	0	0	515	507	513	32	0	
3	0	0	0	0	0	515	509	511	32	0	
4	0	0	0	0	0	514	507	512	32	0	
5	0	0	0	0	0	514	511	513	31	0	
6	0	0	0	0	1	515	511	515	32	0	
7	0	0	0	0	0	515	510	511	32	0	
8	0	0	0	0	0	512	508	508	32	0	
9	0	0	0	0	0	512	510	508	31	0	
10	0	0	0	0	0	514	509	510	31	0	
11	0	0	0	0	0	513	510	508	31	0	
12	0	0	0	0	0	515	509	508	32	0	
13	0	0	0	0	0	515	509	509	31	0	
14	0	0	0	0	1	512	511	513	31	0	
15	0	0	0	0	0	514	509	515	32	0	
0	0	0	0	0	0	515	511	511	31	0	
1	0	0	0	0	0	515	513	513	32	0	
2	0	0	0	0	0	514	512	510	32	0	
3	0	0	0	0	0	515	508	514	32	0	
4	0	0	0	0	0	512	508	516	32	0	
5	0	0	0	0	0	513	510	515	32	0	
6	0	0	0	0	1	512	509	511	32	0	
7	0	0	0	0	0	511	510	512	31	0	
8	0	0	0	0	0	511	509	508	31	0	
9	0	0	0	0	0	513	511	507	31	0	
10	0	0	0	0	0	513	512	505	31	0	
11	0	0	0	0	0	515	510	507	32	0	
12	0	0	0	0	0	513	510	508	32	0	
13	0	0	0	0	0	515	509	509	32	0	
14	0	0	0	0	1	515	508	511	32	0	
15	0	0	0	0	0	514	505	515	32	0	
0	0	0	0	0	0	517	504	512	32	0	
1	0	0	0	0	0	516	511	509	31	0	
2	0	0	0	0	0	515	508	508	31	0	
3	0	0	0	0	0	515	509	508	31	0	
4	0	0	0	0	0	513	511	515	32	0	
5	0	0	0	0	0	515	513	514	31	0	
6	0	0	0	0	1	514	510	508	31	0	
7	0	0	0	0	0	514	510	512	31	0	
8	0	0	0	0	0	514	510	510	31	0	
9	0	0	0	0	0	515	508	508	32	0	
10	0	0	0	0	0	513	511	510	31	0	
11	0	0	0	0	0	515	509	510	32	0	
12	0	0	0	0	0	512	510	508	31	0	
13	0	0	0	0	0	514	508	508	32	0	
14	0	0	0	0	1	513	512	513	32	0	
15	0	0	0	0	0	511	510	512	32	0	
0	0	0	0	0	0	512	509	512	31	0	
1	0	0	0	0	0	514	511	512	31	0	
2	0	0	0	0	0	514	510	516	32	0	
3	0	0	0	0	0	514	508	516	32	0	
4	0	0	0	0	0	515	512	514	32	0	
5	0	0	0	0	0	512	512	513	32	0	
6	0	0	0	0	1	515	513	512	31	0	
7	0	0	0	0	0	513	510	512	31	0	
8	0	0	0	0	0	512	506	511	32	0	
9	0	0	0	0	0	513	508	514	32	0	
10	0	0	0	0	0	514	508	510	32	0	
11	0	0	0	0	0	515	507	507	32	0	
12	0	0	0	0	0	516	509	504	32	0	
13	0	0	0	0	0	512	509	510	31	0	
14	0	0	0	0	1	510	509	511	31	0	
15	0	0	0	0	0	513	510	510	32	0	
0	0	0	0	0	0	516	508	505	31	0	
1	0	0	0	0	0	518	511	507	31	0	
2	0	0	0	0	0	517	512	511	31	0	
3	0	0	0	0	0	516	515	511	31	0	
4	0	0	0	0	0	514	513	511	31	0	
5	0	0	0	0	0	512	511	511	31	0	
6	0	0	0	0	1	511	510	514	32	0	
7	0	0	0	0	0	513	511	514	32	0	
8	0	0	0	0	0	512	508	515	32	0	
9	0	0	0	0	0	513	507	514	32	0	
10	0	0	0	0	0	516	507	512	32	0	
11	0	0	0	0	0	514	507	505	32	0	
12	0	0	0	0	0	510	508	506	31	0	
13	0	0	0	0	0	510	509	513	31	0	
14	0	0	0	0	1	510	510	516	32	0	
15	0	0	0	0	0	510	510	516	31	0	
0	0	0	0	0	0	512	511	511	32	0	
1	0	0	0	0	0	517	508	509	32	0	
2	0	0	0	0	0	515	510	512	32	0	
3	0	0	0	0	0	514	515	515	31	0	
4	0	0	0	0	0	519	512	509	31	0	
5	0	0	0	0	0	521	512	511	32	0	
6	0	0	0	0	0	519	511	508	32	0	
7	0	0	0	0	0	515	511	511	32	0	
8	0	0	0	0	0	511	510	515	32	0	
9	0	0	0	0	0	513	506	513	32	0	
10	0	0	0	0	0	514	510	509	32	0	
11	0	0	0	0	0	512	510	512	32	0	
12	0	0	0	0	0	513	510	511	32	0	
13	0	0	0	0	0	512	509	503	31	0	
14	0	0	0	0	0	512	511	502	31	0	
15	0	0	0	0	0	511	508	506	31	0	
0	0	0	0	0	0	514	510	508	31	0	
1	0	0	0	0	0	514	511	507	31	0	
2	0	0	0	0	0	513	513	510	31	0	
3	0	0	0	0	0	514	507	512	31	0	
4	0	0	0	0	0	512	509	511	32	0	
5	0	0	0	0	0	519	510	508	32	0	
6	0	0	0	0	1	519	510	506	31	0	
7	0	0	0	0	0	515	509	512	31	0	
8	0	0	0	0	0	514	507	513	31	0	
9	0	0	0	0	0	512	506	517	32	0	
10	0	0	0	0	0	512	503	516	32	0	
11	0	0	0	0	0	515	505	514	32	0	
12	0	0	0	0	0	514	510	515	32	0	
13	0	0	0	0	0	513	509	511	32	0	
14	0	0	0	0	1	515	513	508	32	0	
15	0	0	0	0	0	514	512	505	31	0	
0	0	0	0	0	0	508	513	508	31	0	
1	0	0	0	0	0	509	511	511	31	0	
2	0	0	0	0	0	512	512	510	31	0	
3	0	0	0	0	0	515	509	506	32	0	
4	0	0	0	0	0	517	508	510	32	0	
5	0	0	0	0	0	514	504	511	32	0	
6	0	0	0	0	1	511	508	514	31	0	
7	0	0	0	0	0	514	511	518	32	0	
8	0	0	0	0	0	513	510	521	32	0	
9	0	0	0	0	0	516	513	511	32	0	
10	0	0	0	0	0	516	512	511	32	0	
11	0	0	0	0	0	516	514	506	32	0	
12	0	0	0	0	0	515	513	502	32	0	
13	0	0	0	0	0	515	511	500	31	0	
14	0	0	0	0	1	514	511	503	31	0	
15	0	0	0	0	0	518	508	504	31	0	
0	0	0	0	0	0	514	507	506	31	0	
1	0	0	0	0	0	513	505	508	31	0	
2	0	0	0	0	0	512	508	511	31	0	
3	0	0	0	0	0	512	507	512	32	0	
4	0	0	0	0	0	515	508	515	32	0	
5	0	0	0	0	0	515	508	515	32	0	
6	0	0	0	0	1	514	508	515	32	0	
7	0	0	0	0	0	513	512	515	32	0	
8	0	0	0	0	0	512	511	515	31	0	
9	0	0	0	0	0	514	512	516	31	0	
10	0	0	0	0	0	515	513	508	31	0	
11	0	0	0	0	0	515	511	508	31	0	
12	0	0	0	0	0	513	510	512	32	0	
13	0	0	0	0	0	511	509	513	31	0	
14	0	0	0	0	1	511	509	515	32	0	
15	0	0	0	0	0	513	509	512	32	0	
0	0	0	0	0	0	512	510	509	32	0	
1	0	0	0	0	0	515	511	508	32	0	
2	0	0	0	0	0	516	512	509	32	0	
3	0	0	0	0	0	518	513	511	32	0	
4	0	0	0	0	0	515	510	514	32	0	
5	0	0	0	0	0	516	510	513	32	0	
6	0	0	0	0	1	515	509	519	31	0	
7	0	0	0	0	0	511	508	521	31	0	
8	0	0	0	0	0	513	510	514	31	0	
9	0	0	0	0	0	515	510	503	31	0	
10	0	0	0	0	0	515	506	505	31	0	
11	0	0	0	0	0	515	509	508	31	0	
12	0	0	0	0	0	511	509	508	32	0	
13	0	0	0	0	0	512	510	511	32	0	
14	0	0	0	0	1	513	508	514	32	0	
15	0	0	0	0	0	511	507	512	31	0	
0	0	0	0	0	0	510	508	506	31	0	
1	0	0	0	0	0	510	512	505	31	0	
2	0	0	0	0	0	515	510	507	32	0	
3	0	0	0	0	0	516	510	511	32	0	
4	0	0	0	0	0	516	510	510	32	0	
5	0	0	0	0	0	516	510	512	32	0	
6	0	0	0	0	1	515	510	515	32	0	
7	0	0	0	0	0	517	511	513	32	0	
8	0	0	0	0	0	518	508	509	32	0	
9	0	0	0	0	0	516	510	507	32	0	
10	0	0	0	0	0	516	510	508	32	0	
11	0	0	0	0	0	515	511	509	32	0	
12	0	0	0	0	0	512	511	512	32	0	
13	0	0	0	0	0	511	511	513	31	0	
14	0	0	0	0	1	512	509	512	31	0	
15	0	0	0	0	0	512	508	510	31	0	
0	0	0	0	0	0	511	510	512	31	0	
1	0	0	0	0	0	515	512	510	31	0	
2	0	0	0	0	0	514	511	510	31	0	
3	0	0	0	0	0	513	510	514	31	0	
4	0	0	0	0	0	514	507	516	32	0	
5	0	0	0	0	0	513	506	518	32	0	
6	0	0	0	0	1	515	509	515	32	0	
7	0	0	0	0	0	515	509	510	32	0	
8	0	0	0	0	0	513	509	511	32	0	
9	0	0	0	0	0	514	511	510	31	0	
10	0	0	0	0	0	515	513	508	31	0	
11	0	0	0	0	0	516	512	507	31	0	
12	0	0	0	0	0	515	509	511	31	0	
13	0	0	0	0	0	515	511	512	31	0	
14	0	0	0	0	0	513	511	512	31	0	
15	0	0	0	0	0	512	511	515	32	0	
0	0	0	0	0	0	514	509	510	32	0	
1	0	0	0	0	0	513	508	509	32	0	
2	0	0	0	0	0	511	509	510	32	0	
3	0	0	0	0	0	511	511	512	31	0	
4	0	0	0	0	0	514	509	510	31	0	
5	0	0	0	0	0	515	510	512	31	0	
6	0	0	0	0	1	515	509	510	31	0	
7	0	0	0	0	0	515	510	513	32	0	
8	0	0	0	0	0	515	508	511	32	0	
9	0	0	0	0	0	512	509	515	32	0	
10	0	0	0	0	0	516	511	515	32	0	
11	0	0	0	0	0	516	512	516	32	0	
12	0	0	0	0	0	512	510	517	32	0	
13	0	0	0	0	0	513	509	509	32	0	
14	0	0	0	0	1	516	507	505	32	0	
15	0	0	0	0	0	512	507	508	32	0	
0	0	0	0	0	0	510	508	513	31	0	
1	0	0	0	0	0	511	505	515	31	0	
2	0	0	0	0	0	508	508	512	31	0	
3	0	0	0	0	0	510	511	513	31	0	
4	0	0	0	0	0	518	513	506	31	0	
5	0	0	0	0	0	517	516	507	31	0	
6	0	0	0	0	1	514	511	510	31	0	
7	0	0	0	0	0	516	511	511	32	0	
8	0	0	0	0	0	514	511	516	32	0	
9	0	0	0	0	0	515	510	522	33	0	
10	0	0	0	0	0	513	511	533	33	0	
11	0	0	0	0	0	514	510	526	32	0	
12	0	0	0	0	0	518	509	519	31	0	
13	0	0	0	0	0	516	510	508	31	0	
14	0	0	0	0	1	516	512	494	30	0	
15	0	0	0	0	0	515	510	486	30	0	
0	0	0	0	0	0	512	508	488	30	0	
1	0	0	0	0	0	511	505	498	31	0	
2	0	0	0	0	0	512	507	508	31	0	
3	0	0	0	0	0	511	506	504	32	0	
4	0	0	0	0	0	511	507	511	32	0	
5	0	0	0	0	0	510	508	512	32	0	
6	0	0	0	0	1	513	511	511	32	0	
7	0	0	0	0	0	512	513	512	32	0	
8	0	0	0	0	0	510	512	517	31	0	
9	0	0	0	0	0	516	511	518	31	0	
10	0	0	0	0	0	516	512	517	31	0	
11	0	0	0	0	0	519	509	521	33	0	
12	0	0	0	0	0	518	511	519	33	0	
13	0	0	0	0	0	515	506	519	32	0	
14	0	0	0	0	1	512	508	518	32	0	
15	0	0	0	0	0	511	509	511	32	0	
0	0	0	0	0	0	513	512	502	31	0	
1	0	0	0	0	0	510	507	502	31	0	
2	0	0	0	0	0	516	509	505	31	0	
3	0	0	0	0	0	515	513	517	31	0	
4	0	0	0	0	0	513	511	526	32	0	
5	0	0	0	0	0	515	510	517	31	0	
6	0	0	0	0	1	516	511	504	31	0	
7	0	0	0	0	0	518	511	501	31	0	
8	0	0	0	0	0	514	512	502	32	0	
9	0	0	0	0	0	509	508	514	32	0	
10	0	0	0	0	0	512	506	509	32	0	
11	0	0	0	0	0	517	510	511	31	0	
12	0	0	0	0	0	514	508	515	31	0	
13	0	0	0	0	0	515	511	519	31	0	
14	0	0	0	0	1	510	509	511	30	0	
15	0	0	0	0	0	514	511	504	31	0	
0	0	0	0	0	0	516	511	491	31	0	
1	0	0	0	0	0	517	511	489	31	0	
2	0	0	0	0	0	519	510	494	32	0	
3	0	0	0	0	0	515	509	502	32	0	
4	0	0	0	0	0	512	507	511	32	0	
5	0	0	0	0	0	511	512	515	32	0	
6	0	0	0	0	1	513	511	517	32	0	
7	0	0	0	0	0	512	511	514	32	0	
8	0	0	0	0	0	511	510	515	31	0	
9	0	0	0	0	0	511	512	515	31	0	
10	0	0	0	0	0	511	511	513	31	0	
11	0	0	0	0	0	509	507	518	31	0	
12	0	0	0	0	0	511	503	519	32	0	
13	0	0	0	0	0	512	507	520	32	0	
14	0	0	0	0	1	513	508	516	32	0	
15	0	0	0	0	0	516	512	515	32	0	
0	0	0	0	0	0	515	512	512	32	0	
1	0	0	0	0	0	514	512	512	32	0	
2	0	0	0	0	0	512	513	514	32	0	
3	0	0	0	0	0	512	512	518	32	0	
4	0	0	0	0	0	512	512	518	32	0	
5	0	0	0	0	0	514	509	519	32	0	
6	0	0	0	0	1	514	506	517	32	0	
7	0	0	0	0	0	512	507	512	31	0	
8	0	0	0	0	0	514	509	510	31	0	
9	0	0	0	0	0	515	510	508	31	0	
10	0	0	0	0	0	512	507	511	32	0	
11	0	0	0	0	0	514	507	512	32	0	
12	0	0	0	0	0	516	507	505	32	0	
13	0	0	0	0	0	516	506	512	32	0	
14	0	0	0	0	1	514	507	523	32	0	
15	0	0	0	0	0	514	508	527	32	0	
0	0	0	0	0	0	513	510	525	31	0	
1	0	0	0	0	0	511	511	509	31	0	
2	0	0	0	0	0	518	512	503	31	0	
3	0	0	0	0	0	514	510	502	30	0	
4	0	0	0	0	0	515	512	496	30	0	
5	0	0	0	0	0	514	511	489	31	0	
6	0	0	0	0	1	514	510	487	31	0	
7	0	0	0	0	0	514	511	495	31	0	
8	0	0	0	0	0	515	509	506	32	0	
9	0	0	0	0	0	515	509	516	32	0	
10	0	0	0	0	0	514	506	522	33	0	
11	0	0	0	0	0	513	507	521	32	0	
12	0	0	0	0	0	513	511	521	32	0	
13	0	0	0	0	0	515	513	520	31	0	
14	0	0	0	0	0	516	514	516	31	0	
15	0	0	0	0	0	513	512	519	31	0	
0	0	0	0	0	0	515	513	512	31	0	
1	0	0	0	0	0	515	510	511	32	0	
2	0	0	0	0	0	515	509	519	32	0	
3	0	0	0	0	0	515	508	520	32	0	
4	0	0	0	0	0	515	506	515	32	0	
5	0	0	0	0	0	512	507	503	32	0	
6	0	0	0	0	0	508	511	501	31	0	
7	0	0	0	0	0	512	510	496	31	0	
8	0	0	0	0	0	514	510	498	31	0	
9	0	0	0	0	0	512	512	512	31	0	
10	0	0	0	0	0	514	510	517	32	0	
11	0	0	0	0	0	513	508	519	32	0	
12	0	0	0	0	0	515	507	518	32	0	
13	0	0	0	0	0	515	511	516	32	0	
14	0	0	0	0	0	512	510	520	32	0	
15	0	0	0	0	0	513	506	525	32	0	
0	0	0	0	0	0	514	509	519	32	0	
1	0	0	0	0	0	512	509	509	32	0	
2	0	0	0	0	0	512	512	507	31	0	
3	0	0	0	0	0	515	511	504	31	0	
4	0	0	0	0	0	514	513	499	31	0	
5	0	0	0	0	0	515	510	503	31	0	
6	0	0	0	0	1	513	509	507	31	0	
7	0	0	0	0	0	513	506	512	31	0	
8	0	0	0	0	0	515	506	519	32	0	
9	0	0	0	0	0	512	509	527	32	0	
10	0	0	0	0	0	512	513	532	32	0	
11	0	0	0	0	0	512	510	532	32	0	
12	0	0	0	0	0	512	511	515	32	0	
13	0	0	0	0	0	519	513	486	31	0	
14	0	0	0	0	1	519	513	478	31	0	
15	0	0	0	0	0	518	510	488	31	0	
0	0	0	0	0	0	517	512	497	31	0	
1	0	0	0	0	0	516	510	508	31	0	
2	0	0	0	0	0	511	505	518	31	0	
3	0	0	0	0	0	507	506	517	31	0	
4	0	0	0	0	0	508	507	519	31	0	
5	0	0	0	0	0	511	509	519	32	0	
6	0	0	0	0	1	515	511	518	31	0	
7	0	0	0	0	0	515	508	511	31	0	
8	0	0	0	0	0	512	507	514	32	0	
9	0	0	0	0	0	514	508	512	32	0	
10	0	0	0	0	0	514	508	513	32	0	
11	0	0	0	0	0	514	509	512	32	0	
12	0	0	0	0	0	512	510	510	31	0	
13	0	0	0	0	0	512	511	513	31	0	
14	0	0	0	0	1	513	512	515	32	0	
15	0	0	0	0	0	511	512	516	32	0	
0	0	0	0	0	0	516	511	519	32	0	
1	0	0	0	0	0	515	508	512	32	0	
2	0	0	0	0	0	515	510	511	32	0	
3	0	0	0	0	0	515	508	511	32	0	
4	0	0	0	0	0	507	509	512	32	0	
5	0	0	0	0	0	504	507	516	32	0	
6	0	0	0	0	1	507	506	514	32	0	
7	0	0	0	0	0	511	510	513	32	0	
8	0	0	0	0	0	518	510	507	31	0	
9	0	0	0	0	0	521	512	505	31	0	
10	0	0	0	0	0	521	511	505	31	0	
11	0	0	0	0	0	521	510	502	31	0	
12	0	0	0	0	0	517	510	505	31	0	
13	0	0	0	0	0	513	511	508	31	0	
14	0	0	0	0	1	512	509	511	31	0	
15	0	0	0	0	0	513	508	513	31	0	
0	0	0	0	0	0	518	510	510	31	0	
1	0	0	0	0	0	517	510	503	31	0	
2	0	0	0	0	0	514	510	504	31	0	
3	0	0	0	0	0	513	508	508	31	0	
4	0	0	0	0	0	511	508	515	32	0	
5	0	0	0	0	0	506	507	522	32	0	
6	0	0	0	0	1	506	507	519	32	0	
7	0	0	0	0	0	508	509	514	32	0	
8	0	0	0	0	0	512	510	513	32	0	
9	0	0	0	0	0	512	512	515	32	0	
10	0	0	0	0	0	512	511	514	32	0	
11	0	0	0	0	0	512	510	508	31	0	
12	0	0	0	0	0	514	508	507	31	0	
13	0	0	0	0	0	515	508	507	31	0	
14	0	0	0	0	1	518	509	508	31	0	
15	0	0	0	0	0	517	511	506	31	0	
0	0	0	0	0	0	518	513	510	31	0	
1	0	0	0	0	0	519	512	515	31	0	
2	0	0	0	0	0	516	513	518	32	0	
3	0	0	0	0	0	515	509	522	32	0	
4	0	0	0	0	0	515	509	512	32	0	
5	0	0	0	0	0	515	510	510	32	0	
6	0	0	0	0	1	515	510	510	32	0	
7	0	0	0	0	0	515	511	511	31	0	
8	0	0	0	0	0	513	509	514	31	0	
9	0	0	0	0	0	510	511	512	32	0	
10	0	0	0	0	0	513	511	509	31	0	
11	0	0	0	0	0	510	508	505	31	0	
12	0	0	0	0	0	511	507	508	31	0	
13	0	0	0	0	0	513	506	510	32	0	
14	0	0	0	0	1	515	507	511	32	0	
15	0	0	0	0	0	517	511	509	31	0	
0	0	0	0	0	0	516	511	509	31	0	
1	0	0	0	0	0	518	510	510	32	0	
2	0	0	0	0	0	519	512	515	32	0	
3	0	0	0	0	0	514	510	512	31	0	
4	0	0	0	0	0	513	508	511	31	0	
5	0	0	0	0	0	513	506	511	31	0	
6	0	0	0	0	1	514	508	511	31	0	
7	0	0	0	0	0	512	508	510	31	0	
8	0	0	0	0	0	511	508	510	31	0	
9	0	0	0	0	0	509	510	510	31	0	
10	0	0	0	0	0	510	511	508	31	0	
11	0	0	0	0	0	515	510	511	31	0	
12	0	0	0	0	0	515	514	509	31	0	
13	0	0	0	0	0	514	514	510	31	0	
14	0	0	0	0	1	512	510	512	32	0	
15	0	0	0	0	0	513	511	512	31	0	
0	0	0	0	0	0	515	509	514	32	0	
1	0	0	0	0	0	514	508	516	32	0	
2	0	0	0	0	0	515	511	515	31	0	
3	0	0	0	0	0	516	508	514	32	0	
4	0	0	0	0	0	514	509	511	32	0	
5	0	0	0	0	0	511	506	510	32	0	
6	0	0	0	0	1	513	510	508	31	0	
7	0	0	0	0	0	512	511	509	31	0	
8	0	0	0	0	0	512	512	509	32	0	
9	0	0	0	0	0	515	510	511	32	0	
10	0	0	0	0	0	515	509	513	32	0	
11	0	0	0	0	0	514	507	511	32	0	
12	0	0	0	0	0	516	508	510	32	0	
13	0	0	0	0	0	514	510	512	31	0	
14	0	0	0	0	1	517	512	513	32	0	
15	0	0	0	0	0	516	508	516	32	0	
0	0	0	0	0	0	516	510	514	32	0	
1	0	0	0	0	0	515	512	513	32	0	
2	0	0	0	0	0	515	512	513	32	0	
3	0	0	0	0	0	515	511	512	32	0	
4	0	0	0	0	0	514	513	512	32	0	
5	0	0	0	0	0	515	511	515	32	0	
6	0	0	0	0	1	514	506	513	32	0	
7	0	0	0	0	0	514	509	513	32	0	
8	0	0	0	0	0	513	510	512	32	0	
9	0	0	0	0	0	512	514	508	31	0	
10	0	0	0	0	0	513	511	510	31	0	
11	0	0	0	0	0	513	512	510	31	0	
12	0	0	0	0	0	513	511	509	31	0	
13	0	0	0	0	0	514	513	508	32	0	
14	0	0	0	0	1	515	512	512	31	0	
15	0	0	0	0	0	515	510	512	32	0	
0	0	0	0	0	0	512	510	517	32	0	
1	0	0	0	0	0	509	510	516	32	0	
2	0	0	0	0	0	510	506	515	32	0	
3	0	0	0	0	0	512	506	514	31	0	
4	0	0	0	0	0	513	506	508	32	0	
5	0	0	0	0	0	513	508	511	32	0	
6	0	0	0	0	1	515	511	510	31	0	
7	0	0	0	0	0	517	513	510	31	0	
8	0	0	0	0	0	519	513	507	31	0	
9	0	0	0	0	0	518	510	507	31	0	
10	0	0	0	0	0	518	509	506	31	0	
11	0	0	0	0	0	514	509	508	31	0	
12	0	0	0	0	0	513	511	506	31	0	
13	0	0	0	0	0	513	511	510	31	0	
14	0	0	0	0	1	515	510	511	32	0	
15	0	0	0	0	0	513	509	513	32	0	
0	0	0	0	0	0	512	509	517	32	0	
1	0	0	0	0	0	510	510	515	32	0	
2	0	0	0	0	0	512	507	516	32	0	
3	0	0	0	0	0	513	507	516	32	0	
4	0	0	0	0	0	513	505	519	32	0	
5	0	0	0	0	0	512	507	511	32	0	
6	0	0	0	0	1	514	509	508	31	0	
7	0	0	0	0	0	513	509	505	31	0	
8	0	0	0	0	0	514	510	504	31	0	
9	0	0	0	0	0	513	511	508	31	0	
10	0	0	0	0	0	515	509	506	31	0	
11	0	0	0	0	0	515	510	508	31	0	
12	0	0	0	0	0	514	512	509	31	0	
13	0	0	0	0	0	512	511	510	31	0	
14	0	0	0	0	1	512	508	514	32	0	
15	0	0	0	0	0	511	510	515	32	0	
0	0	0	0	0	0	516	513	510	32	0	
1	0	0	0	0	0	516	511	508	32	0	
2	0	0	0	0	0	517	505	510	32	0	
3	0	0	0	0	0	516	507	513	32	0	
4	0	0	0	0	0	516	507	513	32	0	
5	0	0	0	0	0	516	511	511	31	0	
6	0	0	0	0	1	514	509	511	32	0	
7	0	0	0	0	0	513	512	509	31	0	
8	0	0	0	0	0	512	512	512	32	0	
9	0	0	0	0	0	511	509	515	32	0	
10	0	0	0	0	0	510	508	514	31	0	
11	0	0	0	0	0	511	506	514	31	0	
12	0	0	0	0	0	511	508	513	32	0	
13	0	0	0	0	0	514	508	511	32	0	
14	0	0	0	0	1	513	511	509	31	0	
15	0	0	0	0	0	515	513	505	31	0	
0	0	0	0	0	0	516	511	505	31	0	
1	0	0	0	0	0	517	513	506	31	0	
2	0	0	0	0	0	516	511	511	31	0	
3	0	0	0	0	0	513	511	513	32	0	
4	0	0	0	0	0	512	511	510	32	0	
5	0	0	0	0	0	514	508	512	32	0	
6	0	0	0	0	1	512	509	515	32	0	
7	0	0	0	0	0	516	508	512	32	0	
8	0	0	0	0	0	515	509	510	31	0	
9	0	0	0	0	0	513	510	514	31	0	
10	0	0	0	0	0	513	509	510	32	0	
11	0	0	0	0	0	512	510	509	32	0	
12	0	0	0	0	0	513	507	509	32	0	
13	0	0	0	0	0	515	510	508	32	0	
14	0	0	0	0	1	513	508	509	32	0	
15	0	0	0	0	0	511	508	508	31	0	
0	0	0	0	0	0	511	511	508	31	0	
1	0	0	0	0	0	512	508	511	31	0	
2	0	0	0	0	0	515	507	512	32	0	
3	0	0	0	0	0	515	509	513	32	0	
4	0	0	0	0	0	514	510	514	32	0	
5	0	0	0	0	0	514	513	515	32	0	
6	0	0	0	0	0	514	512	515	32	0	
7	0	0	0	0	0	514	508	516	32	0	
8	0	0	0	0	0	514	510	514	32	0	
9	0	0	0	0	0	513	511	510	31	0	
10	0	0	0	0	0	513	514	512	32	0	
11	0	0	0	0	0	515	511	508	32	0	
12	0	0	0	0	0	514	511	509	32	0	
13	0	0	0	0	0	512	510	509	31	0	
14	0	0	0	0	0	514	505	509	31	0	
15	0	0	0	0	0	514	505	510	31	0	
0	0	0	0	0	0	513	509	511	31	0	
1	0	0	0	0	0	512	509	508	31	0	
2	0	0	0	0	0	515	508	508	32	0	
3	0	0	0	0	0	513	510	509	31	0	
4	0	0	0	0	0	513	512	512	31	0	
5	0	0	0	0	0	515	510	513	32	0	
6	0	0	0	0	0	514	510	518	32	0	
7	0	0	0	0	0	514	510	515	32	0	
8	0	0	0	0	0	512	512	513	32	0	
9	0	0	0	0	0	514	512	511	31	0	
10	0	0	0	0	0	515	510	511	32	0	
11	0	0	0	0	0	514	509	513	32	0	
12	0	0	0	0	0	517	512	510	32	0	
13	0	0	0	0	0	515	514	508	31	0	
14	0	0	0	0	1	514	512	509	31	0	
15	0	0	0	0	0	514	508	508	31	0	
0	0	0	0	0	0	514	505	509	31	0	
1	0	0	0	0	0	512	508	511	32	0	
2	0	0	0	0	0	515	511	511	32	0	
3	0	0	0	0	0	516	508	511	32	0	
4	0	0	0	0	0	512	508	513	32	0	
5	0	0	0	0	0	513	509	511	32	0	
6	0	0	0	0	1	516	511	508	31	0	
7	0	0	0	0	0	518	515	510	31	0	
8	0	0	0	0	0	510	512	512	31	0	
9	0	0	0	0	0	510	511	513	32	0	
10	0	0	0	0	0	513	505	515	32	0	
11	0	0	0	0	0	513	506	511	32	0	
12	0	0	0	0	0	513	510	513	32	0	
13	0	0	0	0	0	513	508	509	31	0	
14	0	0	0	0	1	514	510	508	32	0	
15	0	0	0	0	0	511	509	509	32	0	
0	0	0	0	0	0	511	510	512	31	0	
1	0	0	0	0	0	514	512	511	31	0	
2	0	0	0	0	0	516	511	511	31	0	
3	0	0	0	0	0	516	512	511	32	0	
4	0	0	0	0	0	514	511	513	32	0	
5	0	0	0	0	0	515	506	512	32	0	
6	0	0	0	0	1	515	503	512	32	0	
7	0	0	0	0	0	513	505	511	32	0	
8	0	0	0	0	0	515	511	511	32	0	
9	0	0	0	0	0	514	512	513	32	0	
10	0	0	0	0	0	512	508	516	32	0	
11	0	0	0	0	0	512	508	516	32	0	
12	0	0	0	0	0	513	510	512	32	0	
13	0	0	0	0	0	512	512	508	31	0	
14	0	0	0	0	1	512	514	504	31	0	
15	0	0	0	0	0	512	512	506	31	0	
0	0	0	0	0	0	514	513	505	31	0	
1	0	0	0	0	0	514	508	505	31	0	
2	0	0	0	0	0	516	504	508	32	0	
3	0	0	0	0	0	515	506	508	32	0	
4	0	0	0	0	0	518	510	508	32	0	
5	0	0	0	0	0	516	511	512	32	0	
6	0	0	0	0	1	516	508	512	32	0	
7	0	0	0	0	0	516	509	513	32	0	
8	0	0	0	0	0	511	509	512	32	0	
9	0	0	0	0	0	510	508	516	32	0	
10	0	0	0	0	0	511	509	515	32	0	
11	0	0	0	0	0	514	510	516	32	0	
12	0	0	0	0	0	515	510	514	32	0	
13	0	0	0	0	0	518	511	515	32	0	
14	0	0	0	0	1	510	510	512	31	0	
15	0	0	0	0	0	507	511	507	31	0	
0	0	0	0	0	0	509	512	505	31	0	
1	0	0	0	0	0	512	513	511	31	0	
2	0	0	0	0	0	513	512	509	31	0	
3	0	0	0	0	0	518	512	507	31	0	
4	0	0	0	0	0	525	510	508	31	0	
5	0	0	0	0	0	522	512	509	32	0	
6	0	0	0	0	1	517	508	511	32	0	
7	0	0	0	0	0	515	505	515	32	0	
8	0	0	0	0	0	511	504	512	31	0	
9	0	0	0	0	0	510	508	514	31	0	
10	0	0	0	0	0	513	511	509	31	0	
11	0	0	0	0	0	514	510	508	31	0	
12	0	0	0	0	0	516	511	510	32	0	
13	0	0	0	0	0	515	510	513	32	0	
14	0	0	0	0	1	515	514	512	32	0	
15	0	0	0	0	0	513	513	512	31	0	
0	0	0	0	0	0	514	509	513	32	0	
1	0	0	0	0	0	515	504	511	32	0	
2	0	0	0	0	0	515	506	511	31	0	
3	0	0	0	0	0	515	509	512	32	0	
4	0	0	0	0	0	512	511	511	32	0	
5	0	0	0	0	0	511	511	510	32	0	
6	0	0	0	0	1	508	513	514	32	0	
7	0	0	0	0	0	507	514	514	32	0	
8	0	0	0	0	0	507	508	516	32	0	
9	0	0	0	0	0	510	509	514	31	0	
10	0	0	0	0	0	518	512	510	32	0	
11	0	0	0	0	0	521	511	507	32	0	
12	0	0	0	0	0	520	506	510	32	0	
13	0	0	0	0	0	518	508	511	32	0	
14	0	0	0	0	1	514	508	511	32	0	
15	0	0	0	0	0	512	510	511	32	0	
0	0	0	0	0	0	508	511	508	32	0	
1	0	0	0	0	0	506	508	509	31	0	
2	0	0	0	0	0	507	510	511	31	0	
3	0	0	0	0	0	512	512	507	31	0	
4	0	0	0	0	0	517	510	507	31	0	
5	0	0	0	0	0	522	509	507	31	0	
6	0	0	0	0	1	524	510	505	31	0	
7	0	0	0	0	0	522	511	510	32	0	
8	0	0	0	0	0	513	504	511	32	0	
9	0	0	0	0	0	509	512	513	32	0	
10	0	0	0	0	0	514	508	511	32	0	
11	0	0	0	0	0	514	510	512	31	0	
12	0	0	0	0	0	512	515	513	32	0	
13	0	0	0	0	0	516	512	514	32	0	
14	0	0	0	0	1	517	504	513	32	0	
15	0	0	0	0	0	514	507	513	32	0	
0	0	0	0	0	0	515	509	510	31	0	
1	0	0	0	0	0	512	509	511	31	0	
2	0	0	0	0	0	511	509	511	31	0	
3	0	0	0	0	0	511	515	510	31	0	
4	0	0	0	0	0	511	514	509	32	0	
5	0	0	0	0	0	508	509	510	31	0	
6	0	0	0	0	0	508	508	512	32	0	
7	0	0	0	0	0	510	505	511	32	0	
8	0	0	0	0	0	511	508	515	32	0	
9	0	0	0	0	0	518	507	512	32	0	
10	0	0	0	0	0	520	512	511	31	0	
11	0	0	0	0	0	521	511	512	32	0	
12	0	0	0	0	0	514	512	512	32	0	
13	0	0	0	0	0	515	513	512	31	0	
14	0	0	0	0	1	514	512	512	31	0	
15	0	0	0	0	0	514	510	511	32	0	
0	0	0	0	0	0	512	510	511	32	0	
1	0	0	0	0	0	511	511	511	32	0	
2	0	0	0	0	0	512	509	513	32	0	
3	0	0	0	0	0	511	508	512	32	0	
4	0	0	0	0	0	515	508	508	31	0	
5	0	0	0	0	0	517	508	508	32	0	
6	0	0	0	0	1	515	509	509	32	0	
7	0	0	0	0	0	514	507	508	31	0	
8	0	0	0	0	0	512	510	508	32	0	
9	0	0	0	0	0	512	512	508	31	0	
10	0	0	0	0	0	512	515	509	31	0	
11	0	0	0	0	0	514	510	512	32	0	
12	0	0	0	0	0	514	504	512	31	0	
13	0	0	0	0	0	514	507	511	31	0	
14	0	0	0	0	1	513	505	513	32	0	
15	0	0	0	0	0	515	509	512	31	0	
0	0	0	0	0	0	516	507	511	31	0	
1	0	0	0	0	0	514	508	512	32	0	
2	0	0	0	0	0	514	510	509	31	0	
3	0	0	0	0	0	514	512	508	32	0	
4	0	0	0	0	0	512	511	512	32	0	
5	0	0	0	0	0	512	510	512	32	0	
6	0	0	0	0	1	513	511	508	32	0	
7	0	0	0	0	0	512	508	508	31	0	
8	0	0	0	0	0	515	511	510	31	0	
9	0	0	0	0	0	515	510	509	31	0	
10	0	0	0	0	0	517	508	512	32	0	
11	0	0	0	0	0	516	510	515	31	0	
12	0	0	0	0	0	513	508	513	31	0	
13	0	0	0	0	0	517	508	512	32	0	
14	0	0	0	0	1	519	511	514	32	0	
15	0	0	0	0	0	511	510	514	32	0	
0	0	0	0	0	0	511	511	514	32	0	
1	0	0	0	0	0	515	508	509	31	0	
2	0	0	0	0	0	515	511	508	32	0	
3	0	0	0	0	0	512	513	508	31	0	
4	0	0	0	0	0	512	512	506	31	0	
5	0	0	0	0	0	512	511	508	31	0	
6	0	0	0	0	1	513	512	509	31	0	
7	0	0	0	0	0	512	511	510	31	0	
8	0	0	0	0	0	511	506	508	31	0	
9	0	0	0	0	0	517	506	513	32	0	
10	0	0	0	0	0	517	508	514	32	0	
11	0	0	0	0	0	515	510	513	32	0	
12	0	0	0	0	0	518	510	512	32	0	
13	0	0	0	0	0	516	508	513	31	0	
14	0	0	0	0	1	515	508	512	31	0	
15	0	0	0	0	0	515	511	511	31	0	
0	0	0	0	0	0	516	511	512	31	0	
1	0	0	0	0	0	515	508	511	32	0	
2	0	0	0	0	0	512	510	513	32	0	
3	0	0	0	0	0	511	513	511	32	0	
4	0	0	0	0	0	513	509	510	32	0	
5	0	0	0	0	0	513	511	509	31	0	
6	0	0	0	0	1	513	512	511	31	0	
7	0	0	0	0	0	513	511	511	31	0	
8	0	0	0	0	0	514	509	512	32	0	
9	0	0	0	0	0	512	511	511	32	0	
10	0	0	0	0	0	512	508	510	32	0	
11	0	0	0	0	0	514	510	508	32	0	
12	0	0	0	0	0	515	511	512	32	0	
13	0	0	0	0	0	514	510	513	32	0	
14	0	0	0	0	1	515	513	511	31	0	
15	0	0	0	0	0	515	507	510	31	0	
0	0	0	0	0	0	516	508	510	31	0	
1	0	0	0	0	0	514	508	511	31	0	
2	0	0	0	0	0	513	506	512	31	0	
3	0	0	0	0	0	513	508	511	31	0	
4	0	0	0	0	0	511	510	509	31	0	
5	0	0	0	0	0	510	508	508	32	0	
6	0	0	0	0	1	513	511	510	32	0	
7	0	0	0	0	0	513	509	507	32	0	
8	0	0	0	0	0	513	510	508	31	0	
9	0	0	0	0	0	512	510	510	32	0	
10	0	0	0	0	0	514	512	512	32	0	
11	0	0	0	0	0	517	508	512	32	0	
12	0	0	0	0	0	514	510	516	32	0	
13	0	0	0	0	0	516	510	515	32	0	
14	0	0	0	0	1	519	507	515	32	0	
15	0	0	0	0	0	519	515	511	31	0	
0	0	0	0	0	0	508	515	514	32	0	
1	0	0	0	0	0	511	505	511	31	0	
2	0	0	0	0	0	512	508	512	31	0	
3	0	0	0	0	0	514	514	511	31	0	
4	0	0	0	0	0	513	512	508	31	0	
5	0	0	0	0	0	516	506	509	31	0	
6	0	0	0	0	0	513	508	511	32	0	
7	0	0	0	0	0	513	511	509	32	0	
8	0	0	0	0	0	512	508	511	32	0	
9	0	0	0	0	0	514	508	509	31	0	
10	0	0	0	0	0	514	512	511	32	0	
11	0	0	0	0	0	513	514	512	32	0	
12	0	0	0	0	0	515	507	510	32	0	
13	0	0	0	0	0	515	509	510	32	0	
14	0	0	0	0	0	514	509	512	32	0	
15	0	0	0	0	0	514	512	513	32	0	
0	0	0	0	0	0	513	509	513	31	0	
1	0	0	0	0	0	515	509	512	31	0	
2	0	0	0	0	0	512	509	512	31	0	
3	0	0	0	0	0	515	508	511	32	0	
4	0	0	0	0	0	511	512	511	32	0	
5	0	0	0	0	0	512	510	508	31	0	
6	0	0	0	0	1	514	507	511	32	0	
7	0	0	0	0	0	513	510	510	32	0	
8	0	0	0	0	0	515	513	509	31	0	
9	0	0	0	0	0	514	505	510	32	0	
10	0	0	0	0	0	514	511	511	31	0	
11	0	0	0	0	0	515	508	511	32	0	
12	0	0	0	0	0	515	508	511	31	0	
13	0	0	0	0	0	515	509	510	32	0	
14	0	0	0	0	1	517	509	512	32	0	
15	0	0	0	0	0	515	510	511	31	0	
0	0	0	0	0	0	513	509	512	32	0	
1	0	0	0	0	0	514	508	512	31	0	
2	0	0	0	0	0	514	509	513	31	0	
3	0	0	0	0	0	514	510	514	32	0	
4	0	0	0	0	0	513	512	510	31	0	
5	0	0	0	0	0	511	511	510	32	0	
6	0	0	0	0	1	513	510	511	32	0	
7	0	0	0	0	0	514	515	508	31	0	
8	0	0	0	0	0	515	510	512	32	0	
9	0	0	0	0	0	515	510	511	32	0	
10	0	0	0	0	0	515	510	507	32	0	
11	0	0	0	0	0	516	511	508	31	0	
12	0	0	0	0	0	519	515	510	31	0	
13	0	0	0	0	0	511	511	513	32	0	
14	0	0	0	0	1	508	507	514	32	0	
15	0	0	0	0	0	513	507	516	32	0	
0	0	0	0	0	0	514	510	514	32	0	
1	0	0	0	0	0	513	511	512	32	0	
2	0	0	0	0	0	513	510	514	32	0	
3	0	0	0	0	0	512	508	513	32	0	
4	0	0	0	0	0	515	504	512	32	0	
5	0	0	0	0	0	513	508	508	31	0	
6	0	0	0	0	1	513	508	509	31	0	
7	0	0	0	0	0	513	510	510	31	0	
8	0	0	0	0	0	512	513	508	31	0	
9	0	0	0	0	0	513	508	513	31	0	
10	0	0	0	0	0	514	507	509	31	0	
11	0	0	0	0	0	514	509	508	31	0	
12	0	0	0	0	0	514	510	510	31	0	
13	0	0	0	0	0	516	512	510	32	0	
14	0	0	0	0	1	515	512	510	32	0	
15	0	0	0	0	0	512	508	510	31	0	
0	0	0	0	0	0	514	509	510	32	0	
1	0	0	0	0	0	515	508	512	32	0	
2	0	0	0	0	0	513	511	512	32	0	
3	0	0	0	0	0	515	510	513	32	0	
4	0	0	0	0	0	514	510	513	32	0	
5	0	0	0	0	0	514	510	512	32	0	
6	0	0	0	0	1	517	510	512	32	0	
7	0	0	0	0	0	513	512	511	31	0	
8	0	0	0	0	0	512	507	510	32	0	
9	0	0	0	0	0	513	510	510	32	0	
10	0	0	0	0	0	513	508	508	32	0	
11	0	0	0	0	0	514	512	512	32	0	
12	0	0	0	0	0	515	513	512	32	0	
13	0	0	0	0	0	513	508	512	32	0	
14	0	0	0	0	1	515	510	512	31	0	
15	0	0	0	0	0	515	513	509	31	0	
0	0	0	0	0	0	513	509	511	31	0	
1	0	0	0	0	0	515	509	512	31	0	
2	0	0	0	0	0	513	513	512	31	0	
3	0	0	0	0	0	514	511	515	31	0	
4	0	0	0	0	0	512	510	511	31	0	
5	0	0	0	0	0	513	511	511	31	0	
6	0	0	0	0	1	511	511	511	32	0	
7	0	0	0	0	0	512	504	512	32	0	
8	0	0	0	0	0	514	505	511	32	0	
9	0	0	0	0	0	513	508	510	32	0	
10	0	0	0	0	0	511	512	511	32	0	
11	0	0	0	0	0	517	511	511	32	0	
12	0	0	0	0	0	516	512	508	31	0	
13	0	0	0	0	0	507	505	508	31	0	
14	0	0	0	0	1	512	508	511	32	0	
15	0	0	0	0	0	511	511	512	31	0	
0	0	0	0	0	0	515	511	511	32	0	
1	0	0	0	0	0	515	510	514	32	0	
2	0	0	0	0	0	515	509	513	32	0	
3	0	0	0	0	0	515	508	511	31	0	
4	0	0	0	0	0	515	512	513	32	0	
5	0	0	0	0	0	515	510	513	32	0	
6	0	0	0	0	1	514	505	513	32	0	
7	0	0	0	0	0	512	510	510	32	0	
8	0	0	0	0	0	515	511	510	31	0	
9	0	0	0	0	0	515	508	509	31	0	
10	0	0	0	0	0	515	509	508	31	0	
11	0	0	0	0	0	516	508	512	31	0	
12	0	0	0	0	0	512	507	511	31	0	
13	0	0	0	0	0	514	510	509	31	0	
14	0	0	0	0	0	515	510	510	32	0	
15	0	0	0	0	0	514	512	513	32	0	
0	0	0	0	0	0	515	513	509	31	0	
1	0	0	0	0	0	514	515	508	31	0	
2	0	0	0	0	0	513	506	510	31	0	
3	0	0	0	0	0	515	508	513	32	0	
4	0	0	0	0	0	513	508	513	32	0	
5	0	0	0	0	0	511	511	511	32	0	
6	0	0	0	0	1	513	512	513	32	0	
7	0	0	0	0	0	513	509	511	32	0	
8	0	0	0	0	0	513	512	511	32	0	
9	0	0	0	0	0	513	511	510	31	0	
10	0	0	0	0	0	514	513	510	31	0	
11	0	0	0	0	0	514	511	509	31	0	
12	0	0	0	0	0	514	508	514	32	0	
13	0	0	0	0	0	515	512	510	32	0	
14	0	0	0	0	0	512	509	511	31	0	
15	0	0	0	0	0	515	509	512	31	0	
0	0	0	0	0	0	513	511	510	32	0	
1	0	0	0	0	0	513	511	510	32	0	
2	0	0	0	0	0	514	505	510	32	0	
3	0	0	0	0	0	513	509	511	32	0	
4	0	0	0	0	0	515	513	515	32	0	
5	0	0	0	0	0	515	504	513	32	0	
6	0	0	0	0	1	516	506	511	32	0	
7	0	0	0	0	0	513	508	511	32	0	
8	0	0	0	0	0	513	507	512	32	0	
9	0	0	0	0	0	513	510	508	31	0	
10	0	0	0	0	0	514	513	509	31	0	
11	0	0	0	0	0	512	508	509	31	0	
12	0	0	0	0	0	515	511	510	31	0	
13	0	0	0	0	0	516	511	510	32	0	
14	0	0	0	0	1	513	512	510	32	0	
15	0	0	0	0	0	507	513	512	32	0	
0	0	0	0	0	0	510	509	510	31	0	
1	0	0	0	0	0	513	511	508	31	0	
2	0	0	0	0	0	512	510	509	31	0	
3	0	0	0	0	0	514	510	510	31	0	
4	0	0	0	0	0	516	508	513	31	0	
5	0	0	0	0	0	515	509	513	32	0	
6	0	0	0	0	1	515	509	513	32	0	
7	0	0	0	0	0	515	508	513	32	0	
8	0	0	0	0	0	514	506	514	32	0	
9	0	0	0	0	0	514	504	511	32	0	
10	0	0	0	0	0	515	508	509	31	0	
11	0	0	0	0	0	513	510	510	31	0	
12	0	0	0	0	0	512	512	509	31	0	
13	0	0	0	0	0	513	511	505	31	0	
14	0	0	0	0	1	518	511	507	31	0	
15	0	0	0	0	0	516	510	509	31	0	
0	0	0	0	0	0	513	512	510	32	0	
1	0	0	0	0	0	515	508	511	32	0	
2	0	0	0	0	0	514	511	512	32	0	
3	0	0	0	0	0	514	513	513	32	0	
4	0	0	0	0	0	513	509	512	31	0	
5	0	0	0	0	0	513	510	513	31	0	
6	0	0	0	0	1	513	513	510	31	0	
7	0	0	0	0	0	512	512	511	31	0	
8	0	0	0	0	0	513	510	512	32	0	
9	0	0	0	0	0	515	511	513	31	0	
10	0	0	0	0	0	514	508	514	32	0	
11	0	0	0	0	0	512	508	513	32	0	
12	0	0	0	0	0	512	509	510	32	0	
13	0	0	0	0	0	513	512	509	32	0	
14	0	0	0	0	1	513	508	504	32	0	
15	0	0	0	0	0	514	508	508	32	0	
0	0	0	0	0	0	515	512	508	31	0	
1	0	0	0	0	0	515	513	511	31	0	
2	0	0	0	0	0	513	512	512	31	0	
3	0	0	0	0	0	515	513	513	32	0	
4	0	0	0	0	0	513	511	515	32	0	
5	0	0	0	0	0	514	507	513	32	0	
6	0	0	0	0	1	513	508	511	32	0	
7	0	0	0	0	0	516	510	511	32	0	
8	0	0	0	0	0	518	510	511	32	0	
9	0	0	0	0	0	516	508	508	31	0	
10	0	0	0	0	0	508	507	509	32	0	
11	0	0	0	0	0	514	508	511	32	0	
12	0	0	0	0	0	515	510	510	31	0	
13	0	0	0	0	0	517	509	510	32	0	
14	0	0	0	0	1	514	512	511	31	0	
15	0	0	0	0	0	510	510	510	32	0	
0	0	0	0	0	0	511	509	508	32	0	
1	0	0	0	0	0	512	509	513	32	0	
2	0	0	0	0	0	512	510	513	32	0	
3	0	0	0	0	0	515	512	515	32	0	
4	0	0	0	0	0	514	510	513	31	0	
5	0	0	0	0	0	514	510	513	31	0	
6	0	0	0	0	1	511	511	513	31	0	
7	0	0	0	0	0	513	511	511	31	0	
8	0	0	0	0	0	516	510	507	31	0	
9	0	0	0	0	0	518	509	510	31	0	
10	0	0	0	0	0	516	508	511	31	0	
11	0	0	0	0	0	515	508	508	32	0	
12	0	0	0	0	0	515	512	508	32	0	
13	0	0	0	0	0	513	513	510	31	0	
14	0	0	0	0	1	514	507	510	32	0	
15	0	0	0	0	0	512	505	509	31	0	
0	0	0	0	0	0	514	506	509	31	0	
1	0	0	0	0	0	510	504	511	32	0	
2	0	0	0	0	0	512	507	512	32	0	
3	0	0	0	0	0	513	511	512	32	0	
4	0	0	0	0	0	513	511	512	31	0	
5	0	0	0	0	0	515	510	511	31	0	
6	0	0	0	0	1	515	515	514	31	0	
7	0	0	0	0	0	515	511	514	32	0	
8	0	0	0	0	0	514	509	510	32	0	
9	0	0	0	0	0	515	509	511	32	0	
10	0	0	0	0	0	515	510	512	32	0	
11	0	0	0	0	0	515	509	511	32	0	
12	0	0	0	0	0	516	511	511	32	0	
13	0	0	0	0	0	514	509	509	31	0	
14	0	0	0	0	0	513	511	512	32	0	
15	0	0	0	0	0	514	510	508	31	0	
0	0	0	0	0	0	511	514	511	32	0	
1	0	0	0	0	0	513	510	511	32	0	
2	0	0	0	0	0	513	508	510	31	0	
3	0	0	0	0	0	512	510	510	31	0	
4	0	0	0	0	0	511	508	510	32	0	
5	0	0	0	0	0	513	504	510	32	0	
6	0	0	0	0	0	515	504	510	31	0	
7	0	0	0	0	0	515	507	512	32	0	
8	0	0	0	0	0	515	508	512	32	0	
9	0	0	0	0	0	518	510	512	32	0	
10	0	0	0	0	0	519	510	514	32	0	
11	0	0	0	0	0	510	510	513	31	0	
12	0	0	0	0	0	512	514	511	31	0	
13	0	0	0	0	0	512	515	509	31	0	
14	0	0	0	0	0	511	509	510	32	0	
15	0	0	0	0	0	515	507	509	32	0	
0	0	0	0	0	0	512	510	505	31	0	
1	0	0	0	0	0	515	512	510	32	0	
2	0	0	0	0	0	514	510	510	32	0	
3	0	0	0	0	0	513	510	510	31	0	
4	0	0	0	0	0	514	508	508	31	0	
5	0	0	0	0	0	516	507	509	31	0	
6	0	0	0	0	1	515	509	510	32	0	
7	0	0	0	0	0	515	509	513	32	0	
8	0	0	0	0	0	514	508	514	32	0	
9	0	0	0	0	0	514	510	514	31	0	
10	0	0	0	0	0	512	509	515	31	0	
11	0	0	0	0	0	514	510	513	32	0	
12	0	0	0	0	0	512	508	512	32	0	
13	0	0	0	0	0	513	512	510	32	0	
14	0	0	0	0	1	513	511	511	32	0	
15	0	0	0	0	0	511	513	507	32	0	
0	0	0	0	0	0	514	512	512	32	0	
1	0	0	0	0	0	515	511	509	32	0	
2	0	0	0	0	0	512	511	511	32	0	
3	0	0	0	0	0	512	506	513	31	0	
4	0	0	0	0	0	512	511	512	31	0	
5	0	0	0	0	0	516	511	513	31	0	
6	0	0	0	0	1	515	510	509	31	0	
7	0	0	0	0	0	516	508	509	31	0	
8	0	0	0	0	0	514	508	511	31	0	
9	0	0	0	0	0	513	505	513	32	0	
10	0	0	0	0	0	515	506	516	31	0	
11	0	0	0	0	0	515	508	513	31	0	
12	0	0	0	0	0	515	511	511	32	0	
13	0	0	0	0	0	515	512	513	32	0	
14	0	0	0	0	1	513	512	511	32	0	
15	0	0	0	0	0	513	512	511	31	0	
0	0	0	0	0	0	511	510	509	31	0	
1	0	0	0	0	0	514	508	510	32	0	
2	0	0	0	0	0	512	511	510	32	0	
3	0	0	0	0	0	512	509	508	32	0	
4	0	0	0	0	0	512	508	508	32	0	
5	0	0	0	0	0	513	507	510	31	0	
6	0	0	0	0	1	515	510	510	31	0	
7	0	0	0	0	0	516	511	512	32	0	
8	0	0	0	0	0	515	512	513	32	0	
9	0	0	0	0	0	513	513	511	32	0	
10	0	0	0	0	0	514	512	512	31	0	
11	0	0	0	0	0	516	514	513	32	0	
12	0	0	0	0	0	515	513	511	32	0	
13	0	0	0	0	0	515	507	513	32	0	
14	0	0	0	0	1	514	507	510	32	0	
15	0	0	0	0	0	519	508	512	32	0	
0	0	0	0	0	0	518	510	510	31	0	
1	0	0	0	0	0	508	509	508	31	0	
2	0	0	0	0	0	511	513	509	31	0	
3	0	0	0	0	0	511	504	511	31	0	
4	0	0	0	0	0	512	507	509	31	0	
5	0	0	0	0	0	514	506	509	31	0	
6	0	0	0	0	1	515	509	512	32	0	
7	0	0	0	0	0	513	511	513	32	0	
8	0	0	0	0	0	515	512	512	32	0	
9	0	0	0	0	0	513	511	513	32	0	
10	0	0	0	0	0	515	510	515	31	0	
11	0	0	0	0	0	513	512	514	31	0	
12	0	0	0	0	0	513	511	511	31	0	
13	0	0	0	0	0	512	510	510	31	0	
14	0	0	0	0	1	512	510	510	31	0	
15	0	0	0	0	0	513	509	509	32	0	
0	0	0	0	0	0	515	508	508	32	0	
1	0	0	0	0	0	514	509	507	31	0	
2	0	0	0	0	0	516	507	510	31	0	
3	0	0	0	0	0	513	508	513	32	0	
4	0	0	0	0	0	512	511	512	32	0	
5	0	0	0	0	0	512	510	510	31	0	
6	0	0	0	0	1	515	510	510	32	0	
7	0	0	0	0	0	515	508	513	32	0	
8	0	0	0	0	0	514	511	511	32	0	
9	0	0	0	0	0	515	509	512	31	0	
10	0	0	0	0	0	515	510	512	31	0	
11	0	0	0	0	0	515	511	514	32	0	
12	0	0	0	0	0	513	510	513	32	0	
13	0	0	0	0	0	512	510	514	32	0	
14	0	0	0	0	1	514	513	510	32	0	
15	0	0	0	0	0	513	512	510	31	0	
0	0	0	0	0	0	513	506	511	32	0	
1	0	0	0	0	0	513	509	511	31	0	
2	0	0	0	0	0	514	509	510	31	0	
3	0	0	0	0	0	514	510	509	31	0	
4	0	0	0	0	0	514	510	508	31	0	
5	0	0	0	0	0	515	513	508	31	0	
6	0	0	0	0	1	514	512	508	31	0	
7	0	0	0	0	0	515	511	510	32	0	
8	0	0	0	0	0	512	505	514	32	0	
9	0	0	0	0	0	515	503	513	32	0	
10	0	0	0	0	0	515	507	509	32	0	
11	0	0	0	0	0	517	508	511	32	0	
12	0	0	0	0	0	513	508	513	32	0	
13	0	0	0	0	0	511	510	513	32	0	
14	0	0	0	0	0	513	509	513	31	0	
15	0	0	0	0	0	512	511	511	31	0	
0	0	0	0	0	0	512	513	509	31	0	
1	0	0	0	0	0	514	512	510	31	0	
2	0	0	0	0	0	513	511	513	32	0	
3	0	0	0	0	0	516	510	510	32	0	
4	0	0	0	0	0	513	509	513	32	0	
5	0	0	0	0	0	513	510	510	32	0	
6	0	0	0	0	0	515	511	511	32	0	
7	0	0	0	0	0	517	509	508	32	0	
8	0	0	0	0	0	513	508	511	32	0	
9	0	0	0	0	0	516	507	512	32	0	
10	0	0	0	0	0	514	510	512	32	0	
11	0	0	0	0	0	511	508	515	32	0	
12	0	0	0	0	0	514	511	513	32	0	
13	0	0	0	0	0	515	508	511	31	0	
14	0	0	0	0	1	513	507	510	31	0	
15	0	0	0	0	0	514	509	510	31	0	
0	0	0	0	0	0	513	511	512	31	0	
1	0	0	0	0	0	514	512	514	31	0	
2	0	0	0	0	0	512	512	509	31	0	
3	0	0	0	0	0	512	508	510	32	0	
4	0	0	0	0	0	514	509	508	32	0	
5	0	0	0	0	0	513	511	505	32	0	
6	0	0	0	0	1	515	512	508	32	0	
7	0	0	0	0	0	514	513	510	31	0	
8	0	0	0	0	0	510	510	511	32	0	
9	0	0	0	0	0	512	515	511	32	0	
10	0	0	0	0	0	518	508	511	32	0	
11	0	0	0	0	0	516	507	513	32	0	
12	0	0	0	0	0	515	509	513	31	0	
13	0	0	0	0	0	512	508	514	32	0	
14	0	0	0	0	1	514	508	513	32	0	
15	0	0	0	0	0	516	511	512	32	0	
0	0	0	0	0	0	513	508	511	32	0	
1	0	0	0	0	0	514	506	510	32	0	
2	0	0	0	0	0	512	507	508	32	0	
3	0	0	0	0	0	513	508	509	31	0	
4	0	0	0	0	0	512	512	510	32	0	
5	0	0	0	0	0	513	512	511	32	0	
6	0	0	0	0	1	514	511	508	31	0	
7	0	0	0	0	0	514	513	510	31	0	
8	0	0	0	0	0	517	509	510	32	0	
9	0	0	0	0	0	517	512	511	32	0	
10	0	0	0	0	0	520	510	512	32	0	
11	0	0	0	0	0	510	510	510	32	0	
12	0	0	0	0	0	509	508	511	32	0	
13	0	0	0	0	0	514	510	511	31	0	
14	0	0	0	0	1	515	511	510	32	0	
15	0	0	0	0	0	512	509	513	32	0	
0	0	0	0	0	0	513	508	511	31	0	
1	0	0	0	0	0	515	509	508	31	0	
2	0	0	0	0	0	516	510	513	32	0	
3	0	0	0	0	0	515	513	511	32	0	
4	0	0	0	0	0	512	508	513	32	0	
5	0	0	0	0	0	513	510	513	31	0	
6	0	0	0	0	1	513	509	511	31	0	
7	0	0	0	0	0	512	509	510	32	0	
8	0	0	0	0	0	515	513	509	32	0	
9	0	0	0	0	0	516	513	510	32	0	
10	0	0	0	0	0	514	507	510	31	0	
11	0	0	0	0	0	514	510	510	31	0	
12	0	0	0	0	0	513	511	511	31	0	
13	0	0	0	0	0	515	511	511	31	0	
14	0	0	0	0	1	513	509	511	31	0	
15	0	0	0	0	0	513	510	511	32	0	
0	0	0	0	0	0	512	509	513	32	0	
1	0	0	0	0	0	513	507	513	32	0	
2	0	0	0	0	0	512	505	509	32	0	
3	0	0	0	0	0	515	508	511	32	0	
4	0	0	0	0	0	515	510	511	32	0	
5	0	0	0	0	0	515	510	510	32	0	
6	0	0	0	0	1	512	510	512	32	0	
7	0	0	0	0	0	511	507	508	32	0	
8	0	0	0	0	0	512	508	507	31	0	
9	0	0	0	0	0	513	510	509	31	0	
10	0	0	0	0	0	513	508	510	32	0	
11	0	0	0	0	0	514	513	513	31	0	
12	0	0	0	0	0	515	505	515	32	0	
13	0	0	0	0	0	513	508	513	32	0	
14	0	0	0	0	1	514	511	513	32	0	
15	0	0	0	0	0	516	510	513	31	0	
0	0	0	0	0	0	515	512	513	32	0	
1	0	0	0	0	0	515	512	512	32	0	
2	0	0	0	0	0	515	511	511	32	0	
3	0	0	0	0	0	515	512	508	31	0	
4	0	0	0	0	0	511	510	509	32	0	
5	0	0	0	0	0	512	508	511	32	0	
6	0	0	0	0	1	513	511	510	32	0	
7	0	0	0	0	0	517	510	511	31	0	
8	0	0	0	0	0	513	512	510	31	0	
9	0	0	0	0	0	513	515	511	31	0	
10	0	0	0	0	0	512	515	508	31	0	
11	0	0	0	0	0	515	511	510	31	0	
12	0	0	0	0	0	516	509	512	31	0	
13	0	0	0	0	0	507	507	512	32	0	
14	0	0	0	0	1	511	504	515	32	0	
15	0	0	0	0	0	514	505	514	32	0	
0	0	0	0	0	0	517	506	511	32	0	
1	0	0	0	0	0	518	505	512	32	0	
2	0	0	0	0	0	515	510	513	32	0	
3	0	0	0	0	0	517	512	510	32	0	
4	0	0	0	0	0	514	514	508	32	0	
5	0	0	0	0	0	513	515	510	31	0	
6	0	0	0	0	0	510	512	509	31	0	
7	0	0	0	0	0	513	510	510	31	0	
8	0	0	0	0	0	513	512	510	31	0	
9	0	0	0	0	0	513	510	508	31	0	
10	0	0	0	0	0	511	508	510	31	0	
11	0	0	0	0	0	512	512	512	31	0	
12	0	0	0	0	0	514	510	510	32	0	
13	0	0	0	0	0	515	504	512	32	0	
14	0	0	0	0	0	515	506	511	32	0	
15	0	0	0	0	0	516	510	512	31	0	
0	0	0	0	0	0	514	507	511	32	0	
1	0	0	0	0	0	515	508	513	32	0	
2	0	0	0	0	0	516	509	511	32	0	
3	0	0	0	0	0	515	507	510	32	0	
4	0	0	0	0	0	513	511	511	32	0	
5	0	0	0	0	0	514	511	510	31	0	
6	0	0	0	0	0	512	511	507	31	0	
7	0	0	0	0	0	513	510	508	31	0	
8	0	0	0	0	0	515	511	511	31	0	
9	0	0	0	0	0	514	512	511	31	0	
10	0	0	0	0	0	513	514	510	32	0	
11	0	0	0	0	0	514	511	509	31	0	
12	0	0	0	0	0	512	510	511	31	0	
13	0	0	0	0	0	514	510	511	31	0	
14	0	0	0	0	1	516	515	513	32	0	
15	0	0	0	0	0	515	509	514	32	0	
0	0	0	0	0	0	515	505	513	32	0	
1	0	0	0	0	0	514	508	510	32	0	
2	0	0	0	0	0	515	511	513	31	0	
3	0	0	0	0	0	514	511	510	31	0	
4	0	0	0	0	0	515	510	507	31	0	
5	0	0	0	0	0	514	515	509	31	0	
6	0	0	0	0	1	513	507	509	32	0	
7	0	0	0	0	0	512	505	511	32	0	
8	0	0	0	0	0	514	509	515	32	0	
9	0	0	0	0	0	511	508	510	31	0	
10	0	0	0	0	0	511	512	509	31	0	
11	0	0	0	0	0	514	513	511	32	0	
12	0	0	0	0	0	516	506	514	32	0	
13	0	0	0	0	0	509	507	512	32	0	
14	0	0	0	0	1	511	509	513	32	0	
15	0	0	0	0	0	513	511	512	32	0	
0	0	0	0	0	0	515	512	509	31	0	
1	0	0	0	0	0	516	510	512	31	0	
2	0	0	0	0	0	517	509	511	31	0	
3	0	0	0	0	0	513	507	509	31	0	
4	0	0	0	0	0	515	507	509	32	0	
5	0	0	0	0	0	515	508	514	32	0	
6	0	0	0	0	1	514	511	513	32	0	
7	0	0	0	0	0	515	511	510	32	0	
8	0	0	0	0	0	515	512	508	32	0	
9	0	0	0	0	0	515	514	508	31	0	
10	0	0	0	0	0	513	510	508	32	0	
11	0	0	0	0	0	510	509	508	31	0	
12	0	0	0	0	0	512	510	511	32	0	
13	0	0	0	0	0	513	509	511	32	0	
14	0	0	0	0	1	512	509	512	32	0	
15	0	0	0	0	0	515	508	512	31	0	
0	0	0	0	0	0	515	510	510	31	0	
1	0	0	0	0	0	516	508	510	31	0	
2	0	0	0	0	0	514	510	511	32	0	
3	0	0	0	0	0	513	510	513	32	0	
4	0	0	0	0	0	515	510	513	32	0	
5	0	0	0	0	0	512	510	515	32	0	
6	0	0	0	0	1	513	511	511	32	0	
7	0	0	0	0	0	514	509	511	31	0	
8	0	0	0	0	0	513	509	509	31	0	
9	0	0	0	0	0	512	513	511	32	0	
10	0	0	0	0	0	515	512	510	32	0	
11	0	0	0	0	0	515	513	510	32	0	
12	0	0	0	0	0	513	512	509	31	0	
13	0	0	0	0	0	512	508	509	31	0	
14	0	0	0	0	1	513	510	510	31	0	
15	0	0	0	0	0	512	508	511	32	0	
0	0	0	0	0	0	515	506	512	32	0	
1	0	0	0	0	0	513	504	515	32	0	
2	0	0	0	0	0	513	506	513	32	0	
3	0	0	0	0	0	511	507	515	32	0	
4	0	0	0	0	0	513	508	515	31	0	
5	0	0	0	0	0	515	511	515	32	0	
6	0	0	0	0	1	512	509	510	31	0	
7	0	0	0	0	0	514	507	507	31	0	
8	0	0	0	0	0	517	510	508	32	0	
9	0	0	0	0	0	517	511	509	31	0	
10	0	0	0	0	0	513	513	510	31	0	
11	0	0	0	0	0	512	511	510	31	0	
12	0	0	0	0	0	514	511	509	31	0	
13	0	0	0	0	0	516	512	507	31	0	
14	0	0	0	0	1	518	512	507	31	0	
15	0	0	0	0	0	514	513	508	31	0	
0	0	0	0	0	0	513	511	511	31	0	
1	0	0	0	0	0	515	511	514	32	0	
2	0	0	0	0	0	515	512	511	31	0	
3	0	0	0	0	0	516	511	511	31	0	
4	0	0	0	0	0	515	511	514	31	0	
5	0	0	0	0	0	517	511	513	31	0	
6	0	0	0	0	1	510	509	514	32	0	
7	0	0	0	0	0	507	509	511	32	0	
8	0	0	0	0	0	508	509	517	32	0	
9	0	0	0	0	0	513	509	515	32	0	
10	0	0	0	0	0	520	508	510	32	0	
11	0	0	0	0	0	517	507	505	32	0	
12	0	0	0	0	0	514	508	507	32	0	
13	0	0	0	0	0	513	511	510	32	0	
14	0	0	0	0	1	512	509	512	32	0	
15	0	0	0	0	0	512	505	511	32	0	
0	0	0	0	0	0	512	505	510	32	0	
1	0	0	0	0	0	512	508	517	31	0	
2	0	0	0	0	0	512	506	513	31	0	
3	0	0	0	0	0	514	507	513	31	0	
4	0	0	0	0	0	513	510	511	31	0	
5	0	0	0	0	0	512	512	513	31	0	
6	0	0	0	0	1	515	508	512	31	0	
7	0	0	0	0	0	514	512	511	31	0	
8	0	0	0	0	0	513	509	510	32	0	
9	0	0	0	0	0	514	512	507	31	0	
10	0	0	0	0	0	516	514	511	31	0	
11	0	0	0	0	0	516	513	506	31	0	
12	0	0	0	0	0	519	513	504	31	0	
13	0	0	0	0	0	516	510	507	32	0	
14	0	0	0	0	1	512	510	510	31	0	
15	0	0	0	0	0	516	512	510	31	0	
0	0	0	0	0	0	511	512	512	32	0	
1	0	0	0	0	0	510	514	513	32	0	
2	0	0	0	0	0	511	512	513	32	0	
3	0	0	0	0	0	513	508	516	32	0	
4	0	0	0	0	0	510	508	514	32	0	
5	0	0	0	0	0	510	508	515	32	0	
6	0	0	0	0	1	512	509	517	32	0	
7	0	0	0	0	0	513	511	514	31	0	
8	0	0	0	0	0	519	510	510	31	0	
9	0	0	0	0	0	518	507	505	31	0	
10	0	0	0	0	0	515	509	510	31	0	
11	0	0	0	0	0	511	506	514	32	0	
12	0	0	0	0	0	513	507	511	32	0	
13	0	0	0	0	0	515	506	510	32	0	
14	0	0	0	0	1	519	508	504	32	0	
15	0	0	0	0	0	515	512	510	32	0	
0	0	0	0	0	0	515	512	512	31	0	
1	0	0	0	0	0	513	513	513	31	0	
2	0	0	0	0	0	513	515	510	31	0	
3	0	0	0	0	0	520	512	506	31	0	
4	0	0	0	0	0	519	511	508	31	0	
5	0	0	0	0	0	511	506	507	32	0	
6	0	0	0	0	1	515	505	510	32	0	
7	0	0	0	0	0	512	509	513	31	0	
8	0	0	0	0	0	513	506	511	31	0	
9	0	0	0	0	0	511	507	511	31	0	
10	0	0	0	0	0	508	511	511	31	0	
11	0	0	0	0	0	510	510	514	31	0	
12	0	0	0	0	0	514	507	512	32	0	
13	0	0	0	0	0	515	511	504	32	0	
14	0	0	0	0	1	510	510	504	32	0	
15	0	0	0	0	0	512	512	508	31	0	
0	0	0	0	0	0	510	514	507	31	0	
1	0	0	0	0	0	514	510	508	31	0	
2	0	0	0	0	0	516	510	509	31	0	
3	0	0	0	0	0	516	505	514	32	0	
4	0	0	0	0	0	519	504	510	32	0	
5	0	0	0	0	0	518	509	510	32	0	
6	0	0	0	0	1	517	508	509	32	0	
7	0	0	0	0	0	512	510	514	32	0	
8	0	0	0	0	0	509	510	518	32	0	
9	0	0	0	0	0	513	509	512	32	0	
10	0	0	0	0	0	515	510	508	32	0	
11	0	0	0	0	0	511	511	508	31	0	
12	0	0	0	0	0	511	510	510	31	0	
13	0	0	0	0	0	514	508	509	31	0	
14	0	0	0	0	1	512	511	511	31	0	
15	0	0	0	0	0	511	512	513	31	0	
0	0	0	0	0	0	512	512	507	31	0	
1	0	0	0	0	0	517	510	508	31	0	
2	0	0	0	0	0	517	513	510	31	0	
3	0	0	0	0	0	515	511	515	32	0	
4	0	0	0	0	0	515	515	515	32	0	
5	0	0	0	0	0	516	511	513	32	0	
6	0	0	0	0	1	514	510	512	32	0	
7	0	0	0	0	0	513	509	511	32	0	
8	0	0	0	0	0	513	506	510	32	0	
9	0	0	0	0	0	511	505	513	32	0	
10	0	0	0	0	0	513	508	514	32	0	
11	0	0	0	0	0	517	511	510	32	0	
12	0	0	0	0	0	516	511	509	31	0	
13	0	0	0	0	0	512	508	509	32	0	
14	0	0	0	0	1	516	508	505	32	0	
15	0	0	0	0	0	516	507	502	31	0	
0	0	0	0	0	0	514	509	505	31	0	
1	0	0	0	0	0	512	510	508	32	0	
2	0	0	0	0	0	511	511	512	32	0	
3	0	0	0	0	0	512	514	514	31	0	
4	0	0	0	0	0	515	511	513	31	0	
5	0	0	0	0	0	515	510	509	31	0	
6	0	0	0	0	1	510	510	510	32	0	
7	0	0	0	0	0	513	511	511	32	0	
8	0	0	0	0	0	513	505	512	32	0	
9	0	0	0	0	0	515	508	511	31	0	
10	0	0	0	0	0	516	512	510	31	0	
11	0	0	0	0	0	515	512	511	31	0	
12	0	0	0	0	0	515	510	512	32	0	
13	0	0	0	0	0	511	510	512	32	0	
14	0	0	0	0	1	511	510	510	32	0	
15	0	0	0	0	0	515	512	508	32	0	
0	0	0	0	0	0	513	511	510	31	0	
1	0	0	0	0	0	510	509	510	31	0	
2	0	0	0	0	0	511	508	507	31	0	
3	0	0	0	0	0	514	507	511	32	0	
4	0	0	0	0	0	514	509	511	31	0	
5	0	0	0	0	0	514	505	513	31	0	
6	0	0	0	0	1	515	505	513	32	0	
7	0	0	0	0	0	518	510	513	32	0	
8	0	0	0	0	0	518	510	511	31	0	
9	0	0	0	0	0	514	511	514	31	0	
10	0	0	0	0	0	512	510	515	31	0	
11	0	0	0	0	0	514	508	513	31	0	
12	0	0	0	0	0	513	508	514	31	0	
13	0	0	0	0	0	512	512	508	32	0	
14	0	0	0	0	0	513	512	512	32	0	
15	0	0	0	0	0	518	512	509	32	0	
0	0	0	0	0	0	512	512	511	31	0	
1	0	0	0	0	0	512	510	514	31	0	
2	0	0	0	0	0	513	509	511	31	0	
3	0	0	0	0	0	515	508	513	32	0	
4	0	0	0	0	0	518	510	512	31	0	
5	0	0	0	0	0	515	509	511	31	0	
6	0	0	0	0	0	510	508	515	32	0	
7	0	0	0	0	0	512	509	518	32	0	
8	0	0	0	0	0	514	510	512	32	0	
9	0	0	0	0	0	515	512	513	31	0	
10	0	0	0	0	0	514	511	512	31	0	
11	0	0	0	0	0	513	511	514	31	0	
12	0	0	0	0	0	514	509	513	31	0	
13	0	0	0	0	0	518	510	508	31	0	
14	0	0	0	0	0	512	509	509	32	0	
15	0	0	0	0	0	511	508	509	32	0	
0	0	0	0	0	0	512	508	510	32	0	
1	0	0	0	0	0	513	508	509	32	0	
2	0	0	0	0	0	515	506	511	32	0	
3	0	0	0	0	0	511	508	517	32	0	
4	0	0	0	0	0	512	510	512	32	0	
5	0	0	0	0	0	515	512	512	31	0	
6	0	0	0	0	1	511	515	515	31	0	
7	0	0	0	0	0	513	515	515	31	0	
8	0	0	0	0	0	511	510	512	32	0	
9	0	0	0	0	0	514	510	511	31	0	
10	0	0	0	0	0	514	510	508	31	0	
11	0	0	0	0	0	515	507	510	31	0	
12	0	0	0	0	0	517	509	511	31	0	
13	0	0	0	0	0	515	515	509	31	0	
14	0	0	0	0	1	515	507	510	31	0	
15	0	0	0	0	0	516	508	510	31	0	
0	0	0	0	0	0	515	512	513	32	0	
1	0	0	0	0	0	510	510	513	32	0	
2	0	0	0	0	0	510	510	511	32	0	
3	0	0	0	0	0	514	507	511	32	0	
4	0	0	0	0	0	515	508	509	32	0	
5	0	0	0	0	0	514	510	512	32	0	
6	0	0	0	0	1	513	508	513	32	0	
7	0	0	0	0	0	512	509	513	31	0	
8	0	0	0	0	0	513	511	515	31	0	
9	0	0	0	0	0	514	511	519	32	0	
10	0	0	0	0	0	516	508	512	31	0	
11	0	0	0	0	0	517	510	508	31	0	
12	0	0	0	0	0	516	512	509	32	0	
13	0	0	0	0	0	516	508	511	32	0	
14	0	0	0	0	1	514	508	509	31	0	
15	0	0	0	0	0	513	509	506	32	0	
0	0	0	0	0	0	515	511	509	31	0	
1	0	0	0	0	0	513	509	509	31	0	
2	0	0	0	0	0	513	511	508	32	0	
3	0	0	0	0	0	513	507	511	32	0	
4	0	0	0	0	0	512	510	511	32	0	
5	0	0	0	0	0	510	509	512	31	0	
6	0	0	0	0	1	510	508	512	31	0	
7	0	0	0	0	0	511	511	510	31	0	
8	0	0	0	0	0	515	510	513	31	0	
9	0	0	0	0	0	516	514	511	32	0	
10	0	0	0	0	0	515	509	513	31	0	
11	0	0	0	0	0	515	509	518	32	0	
12	0	0	0	0	0	513	511	516	32	0	
13	0	0	0	0	0	515	510	511	32	0	
14	0	0	0	0	1	514	511	510	32	0	
15	0	0	0	0	0	515	508	512	32	0	
0	0	0	0	0	0	515	506	512	32	0	
1	0	0	0	0	0	513	509	511	31	0	
2	0	0	0	0	0	514	510	510	31	0	
3	0	0	0	0	0	510	512	511	31	0	
4	0	0	0	0	0	511	510	511	31	0	
5	0	0	0	0	0	517	511	508	31	0	
6	0	0	0	0	1	517	509	503	31	0	
7	0	0	0	0	0	516	508	504	31	0	
8	0	0	0	0	0	514	509	508	32	0	
9	0	0	0	0	0	514	510	512	32	0	
10	0	0	0	0	0	511	507	515	31	0	
11	0	0	0	0	0	507	511	515	32	0	
12	0	0	0	0	0	511	510	518	32	0	
13	0	0	0	0	0	513	506	511	32	0	
14	0	0	0	0	1	514	509	509	32	0	
15	0	0	0	0	0	514	509	511	32	0	
0	0	0	0	0	0	516	512	510	32	0	
1	0	0	0	0	0	514	511	510	31	0	
2	0	0	0	0	0	516	512	508	31	0	
3	0	0	0	0	0	515	510	505	32	0	
4	0	0	0	0	0	515	510	505	32	0	
5	0	0	0	0	0	515	509	507	31	0	
6	0	0	0	0	1	514	509	510	31	0	
7	0	0	0	0	0	515	510	511	31	0	
8	0	0	0	0	0	514	511	512	31	0	
9	0	0	0	0	0	513	505	515	31	0	
10	0	0	0	0	0	510	504	515	32	0	
11	0	0	0	0	0	510	511	512	31	0	
12	0	0	0	0	0	514	508	511	31	0	
13	0	0	0	0	0	514	509	510	31	0	
14	0	0	0	0	1	516	510	510	31	0	
15	0	0	0	0	0	515	512	514	32	0	
0	0	0	0	0	0	517	509	512	32	0	
1	0	0	0	0	0	517	511	512	32	0	
2	0	0	0	0	0	515	511	513	32	0	
3	0	0	0	0	0	512	510	514	32	0	
4	0	0	0	0	0	511	510	511	31	0	
5	0	0	0	0	0	516	513	510	31	0	
6	0	0	0	0	1	518	512	513	32	0	
7	0	0	0	0	0	514	513	510	32	0	
8	0	0	0	0	0	509	507	511	32	0	
9	0	0	0	0	0	513	506	514	32	0	
10	0	0	0	0	0	515	509	513	32	0	
11	0	0	0	0	0	513	510	512	31	0	
12	0	0	0	0	0	513	513	512	32	0	
13	0	0	0	0	0	511	511	517	32	0	
14	0	0	0	0	1	511	511	515	32	0	
15	0	0	0	0	0	515	508	512	31	0	
0	0	0	0	0	0	513	508	511	31	0	
1	0	0	0	0	0	517	510	510	31	0	
2	0	0	0	0	0	516	510	509	31	0	
3	0	0	0	0	0	515	509	510	31	0	
4	0	0	0	0	0	515	511	511	32	0	
5	0	0	0	0	0	511	505	511	32	0	
6	0	0	0	0	0	511	506	512	32	0	
7	0	0	0	0	0	513	508	511	32	0	
8	0	0	0	0	0	512	510	511	31	0	
9	0	0	0	0	0	513	512	511	31	0	
10	0	0	0	0	0	515	511	512	32	0	
11	0	0	0	0	0	518	509	512	31	0	
12	0	0	0	0	0	516	508	509	32	0	
13	0	0	0	0	0	517	506	514	32	0	
14	0	0	0	0	1	515	508	515	32	0	
15	0	0	0	0	0	513	510	514	32	0	
0	0	0	0	0	0	512	509	515	32	0	
1	0	0	0	0	0	515	512	514	32	0	
2	0	0	0	0	0	512	511	512	32	0	
3	0	0	0	0	0	511	510	510	32	0	
4	0	0	0	0	0	512	510	507	32	0	
5	0	0	0	0	0	516	509	508	32	0	
6	0	0	0	0	1	515	513	511	32	0	
7	0	0	0	0	0	513	512	512	32	0	
8	0	0	0	0	0	515	511	512	32	0	
9	0	0	0	0	0	511	513	515	31	0	
10	0	0	0	0	0	515	512	509	31	0	
11	0	0	0	0	0	514	510	510	31	0	
12	0	0	0	0	0	514	508	511	31	0	
13	0	0	0	0	0	515	508	512	32	0	
14	0	0	0	0	1	515	511	511	32	0	
15	0	0	0	0	0	514	506	513	32	0	
0	0	0	0	0	0	512	510	511	31	0	
1	0	0	0	0	0	509	511	513	31	0	
2	0	0	0	0	0	511	512	514	31	0	
3	0	0	0	0	0	511	512	512	31	0	
4	0	0	0	0	0	513	509	513	32	0	
5	0	0	0	0	0	513	508	513	32	0	
6	0	0	0	0	1	513	509	512	32	0	
7	0	0	0	0	0	515	508	512	32	0	
8	0	0	0	0	0	514	506	515	32	0	
9	0	0	0	0	0	514	508	513	32	0	
10	0	0	0	0	0	513	510	513	31	0	
11	0	0	0	0	0	515	510	507	32	0	
12	0	0	0	0	0	513	508	508	32	0	
13	0	0	0	0	0	513	510	509	32	0	
14	0	0	0	0	1	519	512	510	31	0	
15	0	0	0	0	0	516	509	511	31	0	
0	0	0	0	0	0	511	507	513	31	0	
1	0	0	0	0	0	513	508	515	31	0	
2	0	0	0	0	0	511	510	516	31	0	
3	0	0	0	0	0	511	512	515	31	0	
4	0	0	0	0	0	511	509	507	31	0	
5	0	0	0	0	0	512	509	508	31	0	
6	0	0	0	0	1	513	513	504	31	0	
7	0	0	0	0	0	517	511	504	31	0	
8	0	0	0	0	0	517	508	503	31	0	
9	0	0	0	0	0	515	511	508	31	0	
10	0	0	0	0	0	513	512	511	31	0	
11	0	0	0	0	0	515	512	511	32	0	
12	0	0	0	0	0	516	511	515	32	0	
13	0	0	0	0	0	517	513	516	32	0	
14	0	0	0	0	1	516	509	519	32	0	
15	0	0	0	0	0	517	511	515	32	0	
0	0	0	0	0	0	512	508	518	32	0	
1	0	0	0	0	0	512	509	517	32	0	
2	0	0	0	0	0	511	508	513	32	0	
3	0	0	0	0	0	512	508	511	32	0	
4	0	0	0	0	0	512	509	507	31	0	
5	0	0	0	0	0	512	508	505	31	0	
6	0	0	0	0	1	514	506	509	31	0	
7	0	0	0	0	0	510	506	510	31	0	
8	0	0	0	0	0	510	505	515	31	0	
9	0	0	0	0	0	513	505	522	32	0	
10	0	0	0	0	0	512	512	522	32	0	
11	0	0	0	0	0	511	514	518	32	0	
12	0	0	0	0	0	515	514	509	32	0	
13	0	0	0	0	0	511	512	501	32	0	
14	0	0	0	0	1	512	513	499	32	0	
15	0	0	0	0	0	515	511	503	32	0	
0	0	0	0	0	0	517	509	515	32	0	
1	0	0	0	0	0	519	505	517	32	0	
2	0	0	0	0	0	521	507	507	31	0	
3	0	0	0	0	0	519	512	501	31	0	
4	0	0	0	0	0	516	512	492	30	0	
5	0	0	0	0	0	514	510	497	30	0	
6	0	0	0	0	1	512	509	504	30	0	
7	0	0	0	0	0	508	509	515	31	0	
8	0	0	0	0	0	508	508	519	31	0	
9	0	0	0	0	0	513	505	523	32	0	
10	0	0	0	0	0	514	508	522	32	0	
11	0	0	0	0	0	513	513	516	32	0	
12	0	0	0	0	0	512	509	524	32	0	
13	0	0	0	0	0	514	510	531	32	0	
14	0	0	0	0	1	512	510	533	34	0	
15	0	0	0	0	0	514	505	522	34	0	
0	0	0	0	0	0	516	509	504	34	0	
1	0	0	0	0	0	524	511	498	32	0	
2	0	0	0	0	0	524	512	495	31	0	
3	0	0	0	0	0	519	516	480	29	0	
4	0	0	0	0	0	511	514	483	29	0	
5	0	0	0	0	0	505	508	491	29	0	
6	0	0	0	0	1	507	511	499	30	0	
7	0	0	0	0	0	510	510	507	31	0	
8	0	0	0	0	0	510	509	522	32	0	
9	0	0	0	0	0	510	506	526	33	0	
10	0	0	0	0	0	508	505	539	34	0	
11	0	0	0	0	0	521	507	519	34	0	
12	0	0	0	0	0	524	506	511	33	0	
13	0	0	0	0	0	513	508	524	32	0	
14	0	0	0	0	0	511	509	524	31	0	
15	0	0	0	0	0	518	513	502	29	0	
0	0	0	0	0	0	520	514	480	28	0	
1	0	0	0	0	0	513	512	483	27	0	
2	0	0	0	0	0	508	514	485	28	0	
3	0	0	0	0	0	512	509	473	30	0	
4	0	0	0	0	0	517	512	490	32	0	
5	0	0	0	0	0	515	510	506	32	0	
6	0	0	0	0	0	514	509	521	33	0	
7	0	0	0	0	0	527	510	515	33	0	
8	0	0	0	0	0	518	512	521	33	0	
9	0	0	0	0	0	500	509	539	34	0	
10	0	0	0	0	0	494	506	540	33	0	
11	0	0	0	0	0	507	508	524	32	0	
12	0	0	0	0	0	513	508	511	32	0	
13	0	0	0	0	0	512	507	514	32	0	
14	0	0	0	0	0	514	508	515	32	0	
15	0	0	0	0	0	513	509	511	32	0	
0	0	0	0	0	0	517	507	506	32	0	
1	0	0	0	0	0	518	510	513	32	0	
2	0	0	0	0	0	516	508	521	32	0	
3	0	0	0	0	0	508	510	528	32	0	
4	0	0	0	0	0	508	513	526	32	0	
5	0	0	0	0	0	513	512	523	32	0	
6	0	0	0	0	1	515	508	517	33	0	
7	0	0	0	0	0	513	506	510	32	0	
8	0	0	0	0	0	517	510	508	31	0	
9	0	0	0	0	0	516	511	504	30	0	
10	0	0	0	0	0	519	511	493	31	0	
11	0	0	0	0	0	518	508	490	31	0	
12	0	0	0	0	0	512	509	495	31	0	
13	0	0	0	0	0	513	508	497	32	0	
14	0	0	0	0	1	513	508	506	32	0	
15	0	0	0	0	0	513	512	512	32	0	
0	0	0	0	0	0	512	512	512	32	0	
1	0	0	0	0	0	510	509	507	31	0	
2	0	0	0	0	0	514	509	509	31	0	
3	0	0	0	0	0	513	506	514	32	0	
4	0	0	0	0	0	513	508	514	32	0	
5	0	0	0	0	0	514	511	514	32	0	
6	0	0	0	0	1	514	512	513	32	0	
7	0	0	0	0	0	515	510	512	32	0	
8	0	0	0	0	0	518	513	511	31	0	
9	0	0	0	0	0	514	510	510	32	0	
10	0	0	0	0	0	512	512	512	32	0	
11	0	0	0	0	0	509	510	513	32	0	
12	0	0	0	0	0	508	509	515	32	0	
13	0	0	0	0	0	512	507	512	32	0	
14	0	0	0	0	1	514	509	511	31	0	
15	0	0	0	0	0	516	507	509	31	0	
0	0	0	0	0	0	517	508	511	31	0	
1	0	0	0	0	0	516	511	512	31	0	
2	0	0	0	0	0	515	512	513	32	0	
3	0	0	0	0	0	513	508	515	32	0	
4	0	0	0	0	0	513	510	517	32	0	
5	0	0	0	0	0	510	511	516	32	0	
6	0	0	0	0	1	514	510	515	32	0	
7	0	0	0	0	0	515	509	513	32	0	
8	0	0	0	0	0	514	509	511	32	0	
9	0	0	0	0	0	514	511	512	32	0	
10	0	0	0	0	0	510	507	512	31	0	
11	0	0	0	0	0	513	509	511	31	0	
12	0	0	0	0	0	515	512	508	31	0	
13	0	0	0	0	0	516	510	507	31	0	
14	0	0	0	0	1	517	511	509	31	0	
15	0	0	0	0	0	518	512	510	31	0	
0	0	0	0	0	0	514	508	511	32	0	
1	0	0	0	0	0	513	509	511	32	0	
2	0	0	0	0	0	515	510	514	32	0	
3	0	0	0	0	0	513	509	515	32	0	
4	0	0	0	0	0	513	509	513	32	0	
5	0	0	0	0	0	513	511	511	32	0	
6	0	0	0	0	1	514	509	512	32	0	
7	0	0	0	0	0	512	508	514	31	0	
8	0	0	0	0	0	515	511	512	31	0	
9	0	0	0	0	0	513	511	514	31	0	
10	0	0	0	0	0	515	512	511	31	0	
11	0	0	0	0	0	515	512	511	31	0	
12	0	0	0	0	0	515	509	510	31	0	
13	0	0	0	0	0	514	511	507	32	0	
14	0	0	0	0	1	512	509	512	32	0	
15	0	0	0	0	0	512	509	514	32	0	
0	0	0	0	0	0	512	510	513	32	0	
1	0	0	0	0	0	513	512	512	31	0	
2	0	0	0	0	0	511	508	514	32	0	
3	0	0	0	0	0	513	511	514	32	0	
4	0	0	0	0	0	514	511	512	31	0	
5	0	0	0	0	0	516	511	510	31	0	
6	0	0	0	0	1	519	509	510	31	0	
7	0	0	0	0	0	518	511	508	31	0	
8	0	0	0	0	0	515	508	510	31	0	
9	0	0	0	0	0	511	508	513	32	0	
10	0	0	0	0	0	511	508	514	31	0	
11	0	0	0	0	0	511	510	510	32	0	
12	0	0	0	0	0	511	510	511	32	0	
13	0	0	0	0	0	510	510	510	32	0	
14	0	0	0	0	1	514	507	507	32	0	
15	0	0	0	0	0	515	509	511	31	0	
0	0	0	0	0	0	516	509	511	31	0	
1	0	0	0	0	0	516	511	514	32	0	
2	0	0	0	0	0	514	512	519	32	0	
3	0	0	0	0	0	514	511	517	32	0	
4	0	0	0	0	0	516	510	514	32	0	
5	0	0	0	0	0	515	507	515	31	0	
6	0	0	0	0	0	516	509	512	32	0	
7	0	0	0	0	0	518	510	513	31	0	
8	0	0	0	0	0	515	509	514	31	0	
9	0	0	0	0	0	513	510	513	31	0	
10	0	0	0	0	0	515	509	511	31	0	
11	0	0	0	0	0	512	510	515	32	0	
12	0	0	0	0	0	513	510	513	32	0	
13	0	0	0	0	0	514	508	511	32	0	
14	0	0	0	0	1	512	510	509	32	0	
15	0	0	0	0	0	511	510	511	32	0	
0	0	0	0	0	0	513	510	511	32	0	
1	0	0	0	0	0	515	510	510	31	0	
2	0	0	0	0	0	512	509	513	31	0	
3	0	0	0	0	0	514	509	515	32	0	
4	0	0	0	0	0	514	510	518	32	0	
5	0	0	0	0	0	513	511	513	31	0	
6	0	0	0	0	1	515	511	512	32	0	
7	0	0	0	0	0	513	508	513	32	0	
8	0	0	0	0	0	515	512	514	32	0	
9	0	0	0	0	0	512	511	513	32	0	
10	0	0	0	0	0	515	510	510	32	0	
11	0	0	0	0	0	515	508	509	31	0	
12	0	0	0	0	0	516	509	511	31	0	
13	0	0	0	0	0	511	511	509	31	0	
14	0	0	0	0	1	509	511	508	31	0	
15	0	0	0	0	0	513	512	511	31	0	
0	0	0	0	0	0	513	511	512	32	0	
1	0	0	0	0	0	517	510	509	32	0	
2	0	0	0	0	0	517	510	506	31	0	
3	0	0	0	0	0	518	508	511	31	0	
4	0	0	0	0	0	515	509	512	32	0	
5	0	0	0	0	0	515	509	513	32	0	
6	0	0	0	0	1	513	512	514	32	0	
7	0	0	0	0	0	510	508	517	32	0	
8	0	0	0	0	0	513	507	515	32	0	
9	0	0	0	0	0	512	509	513	32	0	
10	0	0	0	0	0	512	512	512	31	0	
11	0	0	0	0	0	514	509	511	31	0	
12	0	0	0	0	0	514	511	507	31	0	
13	0	0	0	0	0	517	508	508	32	0	
14	0	0	0	0	1	516	509	510	32	0	
15	0	0	0	0	0	514	506	512	32	0	
0	0	0	0	0	0	512	508	508	31	0	
1	0	0	0	0	0	511	510	508	31	0	
2	0	0	0	0	0	511	512	510	32	0	
3	0	0	0	0	0	515	511	511	32	0	
4	0	0	0	0	0	515	512	512	32	0	
5	0	0	0	0	0	515	511	512	32	0	
6	0	0	0	0	1	515	508	512	32	0	
7	0	0	0	0	0	517	508	513	32	0	
8	0	0	0	0	0	515	508	513	32	0	
9	0	0	0	0	0	514	508	513	32	0	
10	0	0	0	0	0	511	507	513	31	0	
11	0	0	0	0	0	512	510	512	32	0	
12	0	0	0	0	0	511	512	512	32	0	
13	0	0	0	0	0	514	513	511	31	0	
14	0	0	0	0	1	514	509	506	31	0	
15	0	0	0	0	0	512	508	507	32	0	
0	0	0	0	0	0	514	511	508	31	0	
1	0	0	0	0	0	513	509	512	32	0	
2	0	0	0	0	0	514	509	514	32	0	
3	0	0	0	0	0	513	508	512	32	0	
4	0	0	0	0	0	514	509	512	31	0	
5	0	0	0	0	0	515	510	513	31	0	
6	0	0	0	0	1	516	510	512	32	0	
7	0	0	0	0	0	515	510	513	32	0	
8	0	0	0	0	0	514	510	513	31	0	
9	0	0	0	0	0	514	511	512	31	0	
10	0	0	0	0	0	515	511	512	31	0	
11	0	0	0	0	0	514	511	512	31	0	
12	0	0	0	0	0	516	511	510	32	0	
13	0	0	0	0	0	516	509	514	32	0	
14	0	0	0	0	1	510	508	511	32	0	
15	0	0	0	0	0	511	511	511	32	0	
0	0	0	0	0	0	514	510	510	32	0	
1	0	0	0	0	0	512	511	510	32	0	
2	0	0	0	0	0	512	511	510	31	0	
3	0	0	0	0	0	511	508	510	31	0	
4	0	0	0	0	0	512	509	511	32	0	
5	0	0	0	0	0	514	509	511	32	0	
6	0	0	0	0	1	516	509	511	31	0	
7	0	0	0	0	0	520	506	511	31	0	
8	0	0	0	0	0	518	507	512	32	0	
9	0	0	0	0	0	515	505	511	32	0	
10	0	0	0	0	0	515	507	512	32	0	
11	0	0	0	0	0	513	510	512	32	0	
12	0	0	0	0	0	513	512	510	31	0	
13	0	0	0	0	0	511	513	511	32	0	
14	0	0	0	0	1	510	511	513	31	0	
15	0	0	0	0	0	512	509	516	32	0	
0	0	0	0	0	0	512	508	513	32	0	
1	0	0	0	0	0	512	508	511	32	0	
2	0	0	0	0	0	511	511	512	31	0	
3	0	0	0	0	0	513	510	511	31	0	
4	0	0	0	0	0	513	510	510	31	0	
5	0	0	0	0	0	515	513	511	31	0	
6	0	0	0	0	1	514	513	510	31	0	
7	0	0	0	0	0	516	508	509	31	0	
8	0	0	0	0	0	515	508	510	31	0	
9	0	0	0	0	0	516	509	511	32	0	
10	0	0	0	0	0	516	509	512	32	0	
11	0	0	0	0	0	517	508	512	31	0	
12	0	0	0	0	0	514	511	510	31	0	
13	0	0	0	0	0	516	511	511	32	0	
14	0	0	0	0	1	513	512	510	32	0	
15	0	0	0	0	0	512	513	510	31	0	
0	0	0	0	0	0	512	512	510	31	0	
1	0	0	0	0	0	511	509	510	31	0	
2	0	0	0	0	0	513	510	512	32	0	
3	0	0	0	0	0	514	508	511	31	0	
4	0	0	0	0	0	513	510	510	32	0	
5	0	0	0	0	0	514	511	509	32	0	
6	0	0	0	0	0	514	510	511	32	0	
7	0	0	0	0	0	512	510	512	32	0	
8	0	0	0	0	0	515	512	514	32	0	
9	0	0	0	0	0	514	510	513	31	0	
10	0	0	0	0	0	513	504	512	31	0	
11	0	0	0	0	0	515	508	509	31	0	
12	0	0	0	0	0	513	506	511	32	0	
13	0	0	0	0	0	515	508	508	32	0	
14	0	0	0	0	0	512	512	512	31	0	
15	0	0	0	0	0	514	510	512	31	0	
0	0	0	0	0	0	514	508	513	32	0	
1	0	0	0	0	0	515	509	513	32	0	
2	0	0	0	0	0	515	507	510	32	0	
3	0	0	0	0	0	516	512	508	32	0	
4	0	0	0	0	0	514	513	509	31	0	
5	0	0	0	0	0	512	511	510	31	0	
6	0	0	0	0	0	512	510	512	31	0	
7	0	0	0	0	0	512	510	511	31	0	
8	0	0	0	0	0	513	513	512	31	0	
9	0	0	0	0	0	515	510	514	31	0	
10	0	0	0	0	0	516	511	511	32	0	
11	0	0	0	0	0	513	510	512	32	0	
12	0	0	0	0	0	513	508	512	31	0	
13	0	0	0	0	0	512	507	514	32	0	
14	0	0	0	0	1	513	513	514	32	0	
15	0	0	0	0	0	513	511	515	31	0	
0	0	0	0	0	0	511	508	510	32	0	
1	0	0	0	0	0	514	509	509	32	0	
2	0	0	0	0	0	515	512	507	32	0	
3	0	0	0	0	0	515	508	508	31	0	
4	0	0	0	0	0	516	508	511	32	0	
5	0	0	0	0	0	517	510	510	32	0	
6	0	0	0	0	1	516	508	510	31	0	
7	0	0	0	0	0	515	508	513	32	0	
8	0	0	0	0	0	512	510	513	32	0	
9	0	0	0	0	0	512	510	515	32	0	
10	0	0	0	0	0	511	508	516	32	0	
11	0	0	0	0	0	512	505	515	32	0	
12	0	0	0	0	0	515	508	513	32	0	
13	0	0	0	0	0	515	508	511	32	0	
14	0	0	0	0	1	515	508	510	31	0	
15	0	0	0	0	0	513	510	509	31	0	
0	0	0	0	0	0	513	512	509	31	0	
1	0	0	0	0	0	514	509	510	32	0	
2	0	0	0	0	0	510	508	508	31	0	
3	0	0	0	0	0	513	511	510	32	0	
4	0	0	0	0	0	513	515	510	31	0	
5	0	0	0	0	0	511	515	512	32	0	
6	0	0	0	0	1	514	509	511	32	0	
7	0	0	0	0	0	513	513	511	31	0	
8	0	0	0	0	0	515	513	511	31	0	
9	0	0	0	0	0	514	509	511	32	0	
10	0	0	0	0	0	517	508	511	32	0	
11	0	0	0	0	0	519	510	510	32	0	
12	0	0	0	0	0	515	515	510	31	0	
13	0	0	0	0	0	514	512	511	31	0	
14	0	0	0	0	1	512	507	511	31	0	
15	0	0	0	0	0	515	505	511	31	0	
0	0	0	0	0	0	512	501	513	32	0	
1	0	0	0	0	0	514	504	512	32	0	
2	0	0	0	0	0	514	508	507	32	0	
3	0	0	0	0	0	513	509	508	32	0	
4	0	0	0	0	0	509	509	510	32	0	
5	0	0	0	0	0	510	513	508	31	0	
6	0	0	0	0	1	509	513	510	31	0	
7	0	0	0	0	0	510	507	513	31	0	
8	0	0	0	0	0	510	505	514	32	0	
9	0	0	0	0	0	513	508	514	32	0	
10	0	0	0	0	0	511	512	513	32	0	
11	0	0	0	0	0	511	517	512	31	0	
12	0	0	0	0	0	512	513	515	31	0	
13	0	0	0	0	0	512	511	512	31	0	
14	0	0	0	0	1	516	513	512	31	0	
15	0	0	0	0	0	524	510	508	32	0	
0	0	0	0	0	0	525	503	509	32	0	
1	0	0	0	0	0	520	504	513	32	0	
2	0	0	0	0	0	517	508	511	32	0	
3	0	0	0	0	0	513	505	512	32	0	
4	0	0	0	0	0	510	509	508	32	0	
5	0	0	0	0	0	509	509	509	31	0	
6	0	0	0	0	1	512	511	508	31	0	
7	0	0	0	0	0	511	508	505	31	0	
8	0	0	0	0	0	511	509	507	31	0	
9	0	0	0	0	0	507	511	511	31	0	
10	0	0	0	0	0	502	510	515	32	0	
11	0	0	0	0	0	505	508	517	32	0	
12	0	0	0	0	0	509	508	518	32	0	
13	0	0	0	0	0	521	508	511	32	0	
14	0	0	0	0	1	535	509	506	32	0	
15	0	0	0	0	0	536	511	507	32	0	
0	0	0	0	0	0	521	512	510	31	0	
1	0	0	0	0	0	513	511	512	31	0	
2	0	0	0	0	0	511	512	510	31	0	
3	0	0	0	0	0	511	512	512	31	0	
4	0	0	0	0	0	509	517	510	31	0	
5	0	0	0	0	0	507	516	512	31	0	
6	0	0	0	0	1	512	505	511	32	0	
7	0	0	0	0	0	512	506	509	32	0	
8	0	0	0	0	0	512	508	510	32	0	
9	0	0	0	0	0	509	505	511	32	0	
10	0	0	0	0	0	509	513	511	32	0	
11	0	0	0	0	0	511	511	513	32	0	
12	0	0	0	0	0	513	503	518	32	0	
13	0	0	0	0	0	515	508	515	31	0	
14	0	0	0	0	1	510	514	514	31	0	
15	0	0	0	0	0	510	512	514	32	0	
0	0	0	0	0	0	512	508	514	31	0	
1	0	0	0	0	0	514	508	512	32	0	
2	0	0	0	0	0	516	512	512	32	0	
3	0	0	0	0	0	519	510	508	32	0	
4	0	0	0	0	0	519	507	506	32	0	
5	0	0	0	0	0	513	506	511	32	0	
6	0	0	0	0	1	511	510	511	31	0	
7	0	0	0	0	0	510	509	510	31	0	
8	0	0	0	0	0	512	508	510	32	0	
9	0	0	0	0	0	516	508	506	31	0	
10	0	0	0	0	0	521	512	507	31	0	
11	0	0	0	0	0	521	515	505	31	0	
12	0	0	0	0	0	515	508	512	32	0	
13	0	0	0	0	0	512	504	512	32	0	
14	0	0	0	0	0	512	506	514	32	0	
15	0	0	0	0	0	514	509	518	32	0	
0	0	0	0	0	0	512	510	514	32	0	
1	0	0	0	0	0	512	508	515	32	0	
2	0	0	0	0	0	511	511	514	32	0	
3	0	0	0	0	0	510	511	510	31	0	
4	0	0	0	0	0	508	511	508	31	0	
5	0	0	0	0	0	511	511	510	31	0	
6	0	0	0	0	1	510	511	508	31	0	
7	0	0	0	0	0	514	510	508	31	0	
8	0	0	0	0	0	523	510	507	31	0	
9	0	0	0	0	0	519	508	510	32	0	
10	0	0	0	0	0	514	509	511	32	0	
11	0	0	0	0	0	510	508	511	31	0	
12	0	0	0	0	0	512	513	510	31	0	
13	0	0	0	0	0	513	512	511	31	0	
14	0	0	0	0	1	515	515	510	32	0	
15	0	0	0	0	0	519	511	510	31	0	
0	0	0	0	0	0	513	507	513	31	0	
1	0	0	0	0	0	512	512	512	31	0	
2	0	0	0	0	0	512	508	512	31	0	
3	0	0	0	0	0	513	503	512	32	0	
4	0	0	0	0	0	516	505	512	32	0	
5	0	0	0	0	0	519	508	511	32	0	
6	0	0	0	0	1	513	512	510	31	0	
7	0	0	0	0	0	513	515	509	32	0	
8	0	0	0	0	0	513	511	511	32	0	
9	0	0	0	0	0	512	504	511	32	0	
10	0	0	0	0	0	515	508	511	31	0	
11	0	0	0	0	0	512	512	508	31	0	
12	0	0	0	0	0	510	506	511	31	0	
13	0	0	0	0	0	512	510	514	32	0	
14	0	0	0	0	1	513	512	514	31	0	
15	0	0	0	0	0	515	509	512	32	0	
0	0	0	0	0	0	517	513	512	32	0	
1	0	0	0	0	0	518	515	513	32	0	
2	0	0	0	0	0	514	503	511	31	0	
3	0	0	0	0	0	513	503	510	31	0	
4	0	0	0	0	0	513	509	512	32	0	
5	0	0	0	0	0	514	511	509	32	0	
6	0	0	0	0	1	514	510	507	31	0	
7	0	0	0	0	0	513	512	509	32	0	
8	0	0	0	0	0	515	512	510	31	0	
9	0	0	0	0	0	513	512	512	31	0	
10	0	0	0	0	0	514	510	512	32	0	
11	0	0	0	0	0	513	509	514	32	0	
12	0	0	0	0	0	516	508	511	31	0	
13	0	0	0	0	0	513	510	512	31	0	
14	0	0	0	0	1	515	512	511	31	0	
15	0	0	0	0	0	515	511	511	32	0	
0	0	0	0	0	0	514	506	513	32	0	
1	0	0	0	0	0	515	509	513	32	0	
2	0	0	0	0	0	513	510	512	32	0	
3	0	0	0	0	0	513	510	510	31	0	
4	0	0	0	0	0	512	513	514	32	0	
5	0	0	0	0	0	510	508	515	32	0	
6	0	0	0	0	1	510	513	510	32	0	
7	0	0	0	0	0	514	510	510	32	0	
8	0	0	0	0	0	516	508	509	32	0	
9	0	0	0	0	0	513	509	509	32	0	
10	0	0	0	0	0	513	511	509	32	0	
11	0	0	0	0	0	513	505	508	32	0	
12	0	0	0	0	0	513	508	509	31	0	
13	0	0	0	0	0	518	509	510	32	0	
14	0	0	0	0	1	515	508	509	32	0	
15	0	0	0	0	0	515	515	510	32	0	
0	0	0	0	0	0	516	506	510	32	0	
1	0	0	0	0	0	515	504	510	31	0	
2	0	0	0	0	0	515	508	511	31	0	
3	0	0	0	0	0	513	510	510	31	0	
4	0	0	0	0	0	515	509	511	31	0	
5	0	0	0	0	0	516	511	515	31	0	
6	0	0	0	0	1	508	512	513	31	0	
7	0	0	0	0	0	510	512	513	32	0	
8	0	0	0	0	0	513	509	510	31	0	
9	0	0	0	0	0	514	509	509	31	0	
10	0	0	0	0	0	514	512	508	31	0	
11	0	0	0	0	0	513	510	509	32	0	
12	0	0	0	0	0	511	508	508	32	0	
13	0	0	0	0	0	515	511	510	32	0	
14	0	0	0	0	1	513	512	510	31	0	
15	0	0	0	0	0	513	511	509	31	0	
0	0	0	0	0	0	516	510	512	32	0	
1	0	0	0	0	0	515	509	513	31	0	
2	0	0	0	0	0	514	508	512	32	0	
3	0	0	0	0	0	514	508	515	32	0	
4	0	0	0	0	0	518	510	513	32	0	
5	0	0	0	0	0	516	510	513	32	0	
6	0	0	0	0	1	517	512	512	32	0	
7	0	0	0	0	0	512	510	508	32	0	
8	0	0	0	0	0	514	510	512	31	0	
9	0	0	0	0	0	513	509	511	32	0	
10	0	0	0	0	0	512	513	511	31	0	
11	0	0	0	0	0	510	508	510	32	0	
12	0	0	0	0	0	514	503	513	32	0	
13	0	0	0	0	0	513	508	512	31	0	
14	0	0	0	0	0	513	509	511	31	0	
15	0	0	0	0	0	513	508	512	31	0	
0	0	0	0	0	0	514	511	512	32	0	
1	0	0	0	0	0	515	513	511	31	0	
2	0	0	0	0	0	516	514	509	31	0	
3	0	0	0	0	0	512	513	511	31	0	
4	0	0	0	0	0	515	512	511	31	0	
5	0	0	0	0	0	517	512	513	32	0	
6	0	0	0	0	0	514	509	514	32	0	
7	0	0	0	0	0	514	507	513	32	0	
8	0	0	0	0	0	512	511	508	31	0	
9	0	0	0	0	0	513	512	511	32	0	
10	0	0	0	0	0	513	507	512	31	0	
11	0	0	0	0	0	514	504	511	32	0	
12	0	0	0	0	0	514	508	510	32	0	
13	0	0	0	0	0	514	508	511	31	0	
14	0	0	0	0	0	512	511	508	31	0	
15	0	0	0	0	0	513	507	510	31	0	
0	0	0	0	0	0	511	506	510	31	0	
1	0	0	0	0	0	512	508	513	31	0	
2	0	0	0	0	0	513	511	511	32	0	
3	0	0	0	0	0	515	511	510	31	0	
4	0	0	0	0	0	516	510	513	32	0	
5	0	0	0	0	0	513	513	514	32	0	
6	0	0	0	0	1	515	510	513	32	0	
7	0	0	0	0	0	512	511	511	32	0	
8	0	0	0	0	0	515	511	511	31	0	
9	0	0	0	0	0	518	512	508	32	0	
10	0	0	0	0	0	511	512	507	32	0	
11	0	0	0	0	0	511	508	508	32	0	
12	0	0	0	0	0	514	512	511	32	0	
13	0	0	0	0	0	514	507	511	32	0	
14	0	0	0	0	1	514	508	508	31	0	
15	0	0	0	0	0	508	512	511	32	0	
0	0	0	0	0	0	512	506	511	32	0	
1	0	0	0	0	0	515	501	512	32	0	
2	0	0	0	0	0	514	505	513	31	0	
3	0	0	0	0	0	516	508	513	32	0	
4	0	0	0	0	0	511	510	513	32	0	
5	0	0	0	0	0	517	511	512	31	0	
6	0	0	0	0	1	514	516	512	31	0	
7	0	0	0	0	0	514	511	512	31	0	
8	0	0	0	0	0	515	508	512	32	0	
9	0	0	0	0	0	512	507	508	32	0	
10	0	0	0	0	0	512	511	508	32	0	
11	0	0	0	0	0	515	509	510	32	0	
12	0	0	0	0	0	515	509	512	32	0	
13	0	0	0	0	0	513	511	510	31	0	
14	0	0	0	0	1	513	509	509	31	0	
15	0	0	0	0	0	511	508	511	31	0	
0	0	0	0	0	0	513	511	509	31	0	
1	0	0	0	0	0	513	512	510	31	0	
2	0	0	0	0	0	518	513	508	31	0	
3	0	0	0	0	0	513	515	509	32	0	
4	0	0	0	0	0	513	504	513	32	0	
5	0	0	0	0	0	513	507	515	32	0	
6	0	0	0	0	1	514	511	511	32	0	
7	0	0	0	0	0	516	512	510	31	0	
8	0	0	0	0	0	515	510	513	31	0	
9	0	0	0	0	0	514	511	512	31	0	
10	0	0	0	0	0	514	511	508	31	0	
11	0	0	0	0	0	514	509	510	31	0	
12	0	0	0	0	0	513	511	511	31	0	
13	0	0	0	0	0	511	507	509	31	0	
14	0	0	0	0	1	511	508	507	31	0	
15	0	0	0	0	0	511	511	508	32	0	
0	0	0	0	0	0	513	513	510	32	0	
1	0	0	0	0	0	515	513	513	32	0	
2	0	0	0	0	0	511	511	514	32	0	
3	0	0	0	0	0	513	509	513	31	0	
4	0	0	0	0	0	516	510	511	31	0	
5	0	0	0	0	0	518	512	510	31	0	
6	0	0	0	0	1	516	510	511	31	0	
7	0	0	0	0	0	514	505	513	32	0	
8	0	0	0	0	0	512	507	512	32	0	
9	0	0	0	0	0	515	510	513	32	0	
10	0	0	0	0	0	514	508	512	32	0	
11	0	0	0	0	0	513	509	514	32	0	
12	0	0	0	0	0	514	515	511	31	0	
13	0	0	0	0	0	512	517	511	31	0	
14	0	0	0	0	1	514	507	508	31	0	
15	0	0	0	0	0	513	504	505	31	0	
0	0	0	0	0	0	513	504	510	32	0	
1	0	0	0	0	0	513	508	512	32	0	
2	0	0	0	0	0	515	507	515	32	0	
3	0	0	0	0	0	515	509	516	32	0	
4	0	0	0	0	0	511	510	514	32	0	
5	0	0	0	0	0	515	509	514	32	0	
6	0	0	0	0	1	514	511	514	32	0	
7	0	0	0	0	0	513	511	512	32	0	
8	0	0	0	0	0	515	513	511	31	0	
9	0	0	0	0	0	516	514	511	31	0	
10	0	0	0	0	0	515	509	511	31	0	
11	0	0	0	0	0	513	510	511	31	0	
12	0	0	0	0	0	513	509	507	31	0	
13	0	0	0	0	0	510	508	508	31	0	
14	0	0	0	0	1	513	509	510	31	0	
15	0	0	0	0	0	513	514	509	31	0	
0	0	0	0	0	0	513	511	514	32	0	
1	0	0	0	0	0	512	504	511	32	0	
2	0	0	0	0	0	512	508	510	32	0	
3	0	0	0	0	0	512	511	509	31	0	
4	0	0	0	0	0	516	511	511	31	0	
5	0	0	0	0	0	514	508	512	32	0	
6	0	0	0	0	1	512	507	513	32	0	
7	0	0	0	0	0	513	511	511	32	0	
8	0	0	0	0	0	512	510	515	32	0	
9	0	0	0	0	0	514	509	512	31	0	
10	0	0	0	0	0	515	510	512	32	0	
11	0	0	0	0	0	514	510	509	31	0	
12	0	0	0	0	0	518	513	508	32	0	
13	0	0	0	0	0	517	515	509	32	0	
14	0	0	0	0	0	508	511	510	32	0	
15	0	0	0	0	0	511	508	512	32	0	
0	0	0	0	0	0	512	506	512	32	0	
1	0	0	0	0	0	514	504	508	32	0	
2	0	0	0	0	0	515	507	510	32	0	
3	0	0	0	0	0	512	508	508	31	0	
4	0	0	0	0	0	513	508	511	31	0	
5	0	0	0	0	0	512	509	513	31	0	
6	0	0	0	0	1	513	509	513	32	0	
7	0	0	0	0	0	516	509	511	31	0	
8	0	0	0	0	0	516	512	511	31	0	
9	0	0	0	0	0	512	513	512	31	0	
10	0	0	0	0	0	515	512	512	32	0	
11	0	0	0	0	0	515	509	510	32	0	
12	0	0	0	0	0	516	505	509	32	0	
13	0	0	0	0	0	518	511	508	32	0	
14	0	0	0	0	1	514	511	513	32	0	
15	0	0	0	0	0	514	509	508	31	0	
0	0	0	0	0	0	514	511	509	31	0	
1	0	0	0	0	0	512	511	508	31	0	
2	0	0	0	0	0	515	511	510	31	0	
3	0	0	0	0	0	515	513	511	32	0	
4	0	0	0	0	0	513	511	509	32	0	
5	0	0	0	0	0	514	509	511	32	0	
6	0	0	0	0	1	516	509	511	32	0	
7	0	0	0	0	0	514	507	513	32	0	
8	0	0	0	0	0	513	509	515	32	0	
9	0	0	0	0	0	511	510	512	31	0	
10	0	0	0	0	0	510	508	514	31	0	
11	0	0	0	0	0	512	510	513	32	0	
12	0	0	0	0	0	511	513	512	32	0	
13	0	0	0	0	0	514	515	511	31	0	
14	0	0	0	0	1	513	508	511	32	0	
15	0	0	0	0	0	514	508	508	32	0	
0	0	0	0	0	0	514	510	511	32	0	
1	0	0	0	0	0	514	512	507	31	0	
2	0	0	0	0	0	513	508	509	31	0	
3	0	0	0	0	0	513	508	511	32	0	
4	0	0	0	0	0	514	515	513	32	0	
5	0	0	0	0	0	513	510	512	32	0	
6	0	0	0	0	1	516	500	512	31	0	
7	0	0	0	0	0	515	506	510	31	0	
8	0	0	0	0	0	515	507	509	31	0	
9	0	0	0	0	0	514	511	510	31	0	
10	0	0	0	0	0	513	514	512	31	0	
11	0	0	0	0	0	517	512	513	32	0	
12	0	0	0	0	0	518	509	508	31	0	
13	0	0	0	0	0	509	510	508	32	0	
14	0	0	0	0	1	511	513	507	32	0	
15	0	0	0	0	0	514	511	508	32	0	
0	0	0	0	0	0	513	507	509	32	0	
1	0	0	0	0	0	512	506	509	31	0	
2	0	0	0	0	0	513	511	510	31	0	
3	0	0	0	0	0	514	512	509	31	0	
4	0	0	0	0	0	515	508	511	31	0	
5	0	0	0	0	0	513	515	513	31	0	
6	0	0	0	0	1	513	515	513	32	0	
7	0	0	0	0	0	512	502	513	32	0	
8	0	0	0	0	0	513	507	514	32	0	
9	0	0	0	0	0	515	510	512	32	0	
10	0	0	0	0	0	515	514	511	31	0	
11	0	0	0	0	0	515	509	510	32	0	
12	0	0	0	0	0	514	504	514	32	0	
13	0	0	0	0	0	516	508	511	32	0	
14	0	0	0	0	1	515	511	509	32	0	
15	0	0	0	0	0	513	509	510	31	0	
0	0	0	0	0	0	514	509	511	31	0	
1	0	0	0	0	0	513	510	508	32	0	
2	0	0	0	0	0	512	509	509	32	0	
3	0	0	0	0	0	513	509	510	32	0	
4	0	0	0	0	0	514	510	510	32	0	
5	0	0	0	0	0	513	510	512	32	0	
6	0	0	0	0	1	515	512	512	32	0	
7	0	0	0	0	0	513	521	513	32	0	
8	0	0	0	0	0	511	504	515	32	0	
9	0	0	0	0	0	515	501	512	32	0	
10	0	0	0	0	0	517	509	510	32	0	
11	0	0	0	0	0	517	510	511	31	0	
12	0	0	0	0	0	515	512	508	31	0	
13	0	0	0	0	0	512	510	510	31	0	
14	0	0	0	0	1	511	508	510	31	0	
15	0	0	0	0	0	512	508	512	32	0	
0	0	0	0	0	0	512	511	511	32	0	
1	0	0	0	0	0	514	510	510	31	0	
2	0	0	0	0	0	513	506	508	31	0	
3	0	0	0	0	0	517	510	508	31	0	
4	0	0	0	0	0	513	511	507	31	0	
5	0	0	0	0	0	510	508	507	31	0	
6	0	0	0	0	1	514	511	508	31	0	
7	0	0	0	0	0	511	511	507	31	0	
8	0	0	0	0	0	515	513	508	31	0	
9	0	0	0	0	0	512	508	513	31	0	
10	0	0	0	0	0	514	502	512	31	0	
11	0	0	0	0	0	516	505	510	31	0	
12	0	0	0	0	0	514	507	511	32	0	
13	0	0	0	0	0	514	513	512	32	0	
14	0	0	0	0	1	513	515	512	31	0	
15	0	0	0	0	0	510	509	512	31	0	
0	0	0	0	0	0	511	509	512	32	0	
1	0	0	0	0	0	513	507	511	32	0	
2	0	0	0	0	0	513	508	509	32	0	
3	0	0	0	0	0	511	512	510	32	0	
4	0	0	0	0	0	512	513	508	31	0	
5	0	0	0	0	0	511	510	507	32	0	
6	0	0	0	0	1	516	508	505	32	0	
7	0	0	0	0	0	515	510	507	31	0	
8	0	0	0	0	0	516	511	508	31	0	
9	0	0	0	0	0	515	510	507	31	0	
10	0	0	0	0	0	517	509	508	31	0	
11	0	0	0	0	0	515	512	509	31	0	
12	0	0	0	0	0	515	511	511	32	0	
13	0	0	0	0	0	515	508	510	32	0	
14	0	0	0	0	0	516	511	511	32	0	
15	0	0	0	0	0	512	510	513	32	0	
0	0	0	0	0	0	513	514	512	31	0	
1	0	0	0	0	0	514	509	511	32	0	
2	0	0	0	0	0	513	508	512	32	0	
3	0	0	0	0	0	513	508	511	32	0	
4	0	0	0	0	0	513	509	511	32	0	
5	0	0	0	0	0	513	511	510	31	0	
6	0	0	0	0	0	512	512	513	31	0	
7	0	0	0	0	0	514	508	515	32	0	
8	0	0	0	0	0	520	510	514	31	0	
9	0	0	0	0	0	519	510	511	31	0	
10	0	0	0	0	0	510	508	511	31	0	
11	0	0	0	0	0	514	510	514	32	0	
12	0	0	0	0	0	515	513	515	32	0	
13	0	0	0	0	0	516	511	513	32	0	
14	0	0	0	0	1	513	506	513	32	0	
15	0	0	0	0	0	513	510	512	31	0	
0	0	0	0	0	0	515	512	513	32	0	
1	0	0	0	0	0	513	514	514	32	0	
2	0	0	0	0	0	513	507	510	31	0	
3	0	0	0	0	0	513	508	511	32	0	
4	0	0	0	0	0	515	509	511	32	0	
5	0	0	0	0	0	510	507	508	32	0	
6	0	0	0	0	1	514	510	508	31	0	
7	0	0	0	0	0	514	512	509	31	0	
8	0	0	0	0	0	513	508	511	31	0	
9	0	0	0	0	0	514	505	511	31	0	
10	0	0	0	0	0	513	510	513	32	0	
11	0	0	0	0	0	511	509	511	31	0	
12	0	0	0	0	0	514	509	514	32	0	
13	0	0	0	0	0	512	510	512	32	0	
14	0	0	0	0	1	515	512	513	32	0	
15	0	0	0	0	0	515	512	515	32	0	
0	0	0	0	0	0	516	510	512	31	0	
1	0	0	0	0	0	515	514	511	31	0	
2	0	0	0	0	0	514	504	512	32	0	
3	0	0	0	0	0	515	504	511	31	0	
4	0	0	0	0	0	513	508	512	31	0	
5	0	0	0	0	0	511	509	510	31	0	
6	0	0	0	0	1	510	515	511	31	0	
7	0	0	0	0	0	512	515	511	31	0	
8	0	0	0	0	0	515	515	508	31	0	
9	0	0	0	0	0	516	508	511	31	0	
10	0	0	0	0	0	516	509	513	32	0	
11	0	0	0	0	0	517	511	514	31	0	
12	0	0	0	0	0	514	508	516	32	0	
13	0	0	0	0	0	514	505	513	32	0	
14	0	0	0	0	1	512	506	511	32	0	
15	0	0	0	0	0	512	508	512	31	0	
0	0	0	0	0	0	513	508	513	31	0	
1	0	0	0	0	0	514	515	509	31	0	
2	0	0	0	0	0	514	513	511	32	0	
3	0	0	0	0	0	512	505	513	32	0	
4	0	0	0	0	0	513	508	511	32	0	
5	0	0	0	0	0	517	513	512	32	0	
6	0	0	0	0	1	518	510	512	32	0	
7	0	0	0	0	0	506	510	511	31	0	
8	0	0	0	0	0	511	513	509	31	0	
9	0	0	0	0	0	515	505	512	32	0	
10	0	0	0	0	0	515	508	513	32	0	
11	0	0	0	0	0	512	510	511	32	0	
12	0	0	0	0	0	513	509	511	32	0	
13	0	0	0	0	0	513	510	513	32	0	
14	0	0	0	0	1	513	507	515	32	0	
15	0	0	0	0	0	514	508	514	31	0	
0	0	0	0	0	0	512	508	513	31	0	
1	0	0	0	0	0	514	511	513	32	0	
2	0	0	0	0	0	516	512	512	31	0	
3	0	0	0	0	0	516	513	506	31	0	
4	0	0	0	0	0	513	506	508	32	0	
5	0	0	0	0	0	514	502	508	32	0	
6	0	0	0	0	1	513	509	511	32	0	
7	0	0	0	0	0	514	511	509	32	0	
8	0	0	0	0	0	516	510	511	32	0	
9	0	0	0	0	0	514	510	512	31	0	
10	0	0	0	0	0	514	511	511	32	0	
11	0	0	0	0	0	514	516	513	31	0	
12	0	0	0	0	0	515	515	513	32	0	
13	0	0	0	0	0	514	511	511	31	0	
14	0	0	0	0	1	515	509	511	32	0	
15	0	0	0	0	0	514	513	511	32	0	
0	0	0	0	0	0	515	511	514	32	0	
1	0	0	0	0	0	512	509	513	32	0	
2	0	0	0	0	0	511	507	512	31	0	
3	0	0	0	0	0	515	508	511	31	0	
4	0	0	0	0	0	513	513	510	31	0	
5	0	0	0	0	0	514	508	509	31	0	
6	0	0	0	0	1	515	504	511	32	0	
7	0	0	0	0	0	514	508	510	32	0	
8	0	0	0	0	0	513	507	512	32	0	
9	0	0	0	0	0	513	510	512	31	0	
10	0	0	0	0	0	515	508	511	32	0	
11	0	0	0	0	0	512	510	511	32	0	
12	0	0	0	0	0	515	512	510	31	0	
13	0	0	0	0	0	517	514	512	32	0	
14	0	0	0	0	1	509	514	513	32	0	
15	0	0	0	0	0	510	511	513	31	0	
0	0	0	0	0	0	512	509	512	31	0	
1	0	0	0	0	0	514	509	509	31	0	
2	0	0	0	0	0	513	510	513	32	0	
3	0	0	0	0	0	515	509	514	32	0	
4	0	0	0	0	0	512	507	510	31	0	
5	0	0	0	0	0	514	508	509	32	0	
6	0	0	0	0	1	515	510	510	32	0	
7	0	0	0	0	0	515	512	507	31	0	
8	0	0	0	0	0	513	514	512	32	0	
9	0	0	0	0	0	513	504	511	31	0	
10	0	0	0	0	0	515	509	511	31	0	
11	0	0	0	0	0	516	508	512	32	0	
12	0	0	0	0	0	517	511	512	32	0	
13	0	0	0	0	0	515	509	513	32	0	
14	0	0	0	0	1	514	510	516	32	0	
15	0	0	0	0	0	513	511	518	32	0	
0	0	0	0	0	0	513	503	515	32	0	
1	0	0	0	0	0	513	507	512	32	0	
2	0	0	0	0	0	515	508	513	31	0	
3	0	0	0	0	0	513	510	511	32	0	
4	0	0	0	0	0	515	509	509	31	0	
5	0	0	0	0	0	513	508	510	32	0	
6	0	0	0	0	0	513	511	511	31	0	
7	0	0	0	0	0	512	509	510	32	0	
8	0	0	0	0	0	513	510	512	32	0	
9	0	0	0	0	0	515	511	511	32	0	
10	0	0	0	0	0	512	509	508	32	0	
11	0	0	0	0	0	514	512	509	31	0	
12	0	0	0	0	0	512	515	509	31	0	
13	0	0	0	0	0	513	511	512	31	0	
14	0	0	0	0	1	514	511	512	31	0	
15	0	0	0	0	0	512	513	511	31	0	
0	0	0	0	0	0	514	512	513	32	0	
1	0	0	0	0	0	513	510	512	31	0	
2	0	0	0	0	0	514	512	513	31	0	
3	0	0	0	0	0	517	509	513	32	0	
4	0	0	0	0	0	516	505	512	32	0	
5	0	0	0	0	0	510	508	511	32	0	
6	0	0	0	0	1	513	511	513	32	0	
7	0	0	0	0	0	515	515	512	32	0	
8	0	0	0	0	0	513	510	510	32	0	
9	0	0	0	0	0	514	504	508	31	0	
10	0	0	0	0	0	512	508	509	31	0	
11	0	0	0	0	0	513	510	509	31	0	
12	0	0	0	0	0	514	511	509	31	0	
13	0	0	0	0	0	517	508	511	32	0	
14	0	0	0	0	1	515	507	510	32	0	
15	0	0	0	0	0	515	510	512	32	0	
0	0	0	0	0	0	514	507	510	32	0	
1	0	0	0	0	0	512	507	512	31	0	
2	0	0	0	0	0	513	510	513	31	0	
3	0	0	0	0	0	512	509	512	32	0	
4	0	0	0	0	0	512	510	512	31	0	
5	0	0	0	0	0	512	511	511	31	0	
6	0	0	0	0	1	515	510	513	31	0	
7	0	0	0	0	0	515	511	511	32	0	
8	0	0	0	0	0	514	511	507	31	0	
9	0	0	0	0	0	513	507	508	32	0	
10	0	0	0	0	0	513	514	509	31	0	
11	0	0	0	0	0	513	516	510	32	0	
12	0	0	0	0	0	513	507	512	32	0	
13	0	0	0	0	0	516	508	509	32	0	
14	0	0	0	0	1	511	510	512	32	0	
15	0	0	0	0	0	509	511	514	32	0	
0	0	0	0	0	0	514	512	513	31	0	
1	0	0	0	0	0	514	508	514	32	0	
2	0	0	0	0	0	513	510	513	32	0	
3	0	0	0	0	0	515	511	511	31	0	
4	0	0	0	0	0	514	512	511	31	0	
5	0	0	0	0	0	515	511	511	32	0	
6	0	0	0	0	1	515	505	511	32	0	
7	0	0	0	0	0	511	507	508	31	0	
8	0	0	0	0	0	510	510	508	32	0	
9	0	0	0	0	0	513	509	508	31	0	
10	0	0	0	0	0	514	509	509	31	0	
11	0	0	0	0	0	515	511	512	31	0	
12	0	0	0	0	0	514	511	512	31	0	
13	0	0	0	0	0	508	509	513	31	0	
14	0	0	0	0	1	514	509	513	32	0	
15	0	0	0	0	0	515	509	510	31	0	
0	0	0	0	0	0	515	509	509	32	0	
1	0	0	0	0	0	515	507	510	32	0	
2	0	0	0	0	0	516	507	512	31	0	
3	0	0	0	0	0	513	511	511	31	0	
4	0	0	0	0	0	515	511	510	31	0	
5	0	0	0	0	0	514	508	512	31	0	
6	0	0	0	0	1	515	509	513	32	0	
7	0	0	0	0	0	512	513	512	32	0	
8	0	0	0	0	0	512	513	510	32	0	
9	0	0	0	0	0	513	514	511	31	0	
10	0	0	0	0	0	514	512	510	32	0	
11	0	0	0	0	0	514	510	511	32	0	
12	0	0	0	0	0	514	510	510	31	0	
13	0	0	0	0	0	513	508	509	32	0	
14	0	0	0	0	1	513	509	512	32	0	
15	0	0	0	0	0	514	513	511	32	0	
0	0	0	0	0	0	515	505	514	32	0	
1	0	0	0	0	0	513	505	514	32	0	
2	0	0	0	0	0	513	504	512	32	0	
3	0	0	0	0	0	513	508	510	31	0	
4	0	0	0	0	0	516	511	511	31	0	
5	0	0	0	0	0	517	512	511	31	0	
6	0	0	0	0	1	517	513	511	32	0	
7	0	0	0	0	0	512	512	516	32	0	
8	0	0	0	0	0	512	509	513	32	0	
9	0	0	0	0	0	514	507	511	31	0	
10	0	0	0	0	0	511	509	508	31	0	
11	0	0	0	0	0	512	512	510	31	0	
12	0	0	0	0	0	513	512	511	31	0	
13	0	0	0	0	0	515	515	510	31	0	
14	0	0	0	0	1	514	514	507	31	0	
15	0	0	0	0	0	513	507	510	31	0	
0	0	0	0	0	0	512	506	513	32	0	
1	0	0	0	0	0	513	506	514	32	0	
2	0	0	0	0	0	513	507	511	32	0	
3	0	0	0	0	0	513	508	511	31	0	
4	0	0	0	0	0	515	511	511	32	0	
5	0	0	0	0	0	515	512	510	32	0	
6	0	0	0	0	0	517	508	512	31	0	
7	0	0	0	0	0	519	508	511	31	0	
8	0	0	0	0	0	516	507	511	31	0	
9	0	0	0	0	0	512	511	510	32	0	
10	0	0	0	0	0	513	511	508	32	0	
11	0	0	0	0	0	512	509	511	32	0	
12	0	0	0	0	0	514	509	510	32	0	
13	0	0	0	0	0	514	508	512	32	0	
14	0	0	0	0	0	512	508	510	32	0	
15	0	0	0	0	0	515	510	510	32	0	
0	0	0	0	0	0	515	512	511	31	0	
1	0	0	0	0	0	516	511	510	32	0	
2	0	0	0	0	0	513	509	511	31	0	
3	0	0	0	0	0	513	510	512	31	0	
4	0	0	0	0	0	514	511	514	31	0	
5	0	0	0	0	0	515	515	513	32	0	
6	0	0	0	0	0	515	508	515	31	0	
7	0	0	0	0	0	514	508	514	31	0	
8	0	0	0	0	0	511	508	512	31	0	
9	0	0	0	0	0	510	509	509	32	0	
10	0	0	0	0	0	512	510	509	31	0	
11	0	0	0	0	0	512	511	508	32	0	
12	0	0	0	0	0	513	507	510	32	0	
13	0	0	0	0	0	511	509	513	32	0	
14	0	0	0	0	1	515	510	512	32	0	
15	0	0	0	0	0	515	507	508	31	0	
0	0	0	0	0	0	516	511	509	32	0	
1	0	0	0	0	0	516	510	512	32	0	
2	0	0	0	0	0	515	514	512	32	0	
3	0	0	0	0	0	514	513	512	31	0	
4	0	0	0	0	0	516	511	513	31	0	
5	0	0	0	0	0	515	512	512	32	0	
6	0	0	0	0	1	513	511	512	32	0	
7	0	0	0	0	0	513	508	513	32	0	
8	0	0	0	0	0	513	508	509	32	0	
9	0	0	0	0	0	513	506	509	31	0	
10	0	0	0	0	0	513	506	512	32	0	
11	0	0	0	0	0	515	508	511	31	0	
12	0	0	0	0	0	513	509	509	31	0	
13	0	0	0	0	0	511	510	507	31	0	
14	0	0	0	0	1	513	510	511	31	0	
15	0	0	0	0	0	513	508	510	31	0	
0	0	0	0	0	0	514	511	511	31	0	
1	0	0	0	0	0	513	510	513	32	0	
2	0	0	0	0	0	513	510	512	32	0	
3	0	0	0	0	0	515	512	510	32	0	
4	0	0	0	0	0	519	507	510	32	0	
5	0	0	0	0	0	518	510	511	32	0	
6	0	0	0	0	1	513	513	512	32	0	
7	0	0	0	0	0	504	501	515	32	0	
8	0	0	0	0	0	511	506	514	32	0	
9	0	0	0	0	0	512	509	512	32	0	
10	0	0	0	0	0	519	509	513	32	0	
11	0	0	0	0	0	514	511	511	32	0	
12	0	0	0	0	0	511	508	511	31	0	
13	0	0	0	0	0	513	510	512	31	0	
14	0	0	0	0	1	514	513	506	31	0	
15	0	0	0	0	0	514	513	513	31	0	
0	0	0	0	0	0	513	512	510	32	0	
1	0	0	0	0	0	514	513	508	31	0	
2	0	0	0	0	0	515	512	509	31	0	
3	0	0	0	0	0	515	515	507	31	0	
4	0	0	0	0	0	513	506	513	32	0	
5	0	0	0	0	0	515	504	512	32	0	
6	0	0	0	0	1	514	508	511	31	0	
7	0	0	0	0	0	516	510	510	32	0	
8	0	0	0	0	0	514	512	510	32	0	
9	0	0	0	0	0	514	509	514	32	0	
10	0	0	0	0	0	514	511	512	32	0	
11	0	0	0	0	0	513	509	513	32	0	
12	0	0	0	0	0	511	507	513	32	0	
13	0	0	0	0	0	513	508	511	31	0	
14	0	0	0	0	1	514	512	510	32	0	
15	0	0	0	0	0	515	510	512	32	0	
0	0	0	0	0	0	510	512	511	31	0	
1	0	0	0	0	0	513	512	511	31	0	
2	0	0	0	0	0	513	507	512	32	0	
3	0	0	0	0	0	514	507	508	32	0	
4	0	0	0	0	0	513	508	511	31	0	
5	0	0	0	0	0	513	508	513	31	0	
6	0	0	0	0	1	516	509	512	31	0	
7	0	0	0	0	0	516	509	512	32	0	
8	0	0	0	0	0	515	510	513	32	0	
9	0	0	0	0	0	513	511	513	32	0	
10	0	0	0	0	0	515	511	512	32	0	
11	0	0	0	0	0	512	510	513	31	0	
12	0	0	0	0	0	511	508	512	31	0	
13	0	0	0	0	0	512	513	508	31	0	
14	0	0	0	0	1	511	512	508	31	0	
15	0	0	0	0	0	513	511	507	31	0	
0	0	0	0	0	0	514	511	508	32	0	
1	0	0	0	0	0	514	509	508	32	0	
2	0	0	0	0	0	511	509	510	31	0	
3	0	0	0	0	0	517	510	509	31	0	
4	0	0	0	0	0	519	508	512	32	0	
5	0	0	0	0	0	511	510	512	32	0	
6	0	0	0	0	1	508	511	514	32	0	
7	0	0	0	0	0	515	511	516	32	0	
8	0	0	0	0	0	516	509	512	32	0	
9	0	0	0	0	0	515	508	512	32	0	
10	0	0	0	0	0	514	509	511	32	0	
11	0	0	0	0	0	514	512	512	31	0	
12	0	0	0	0	0	513	511	512	32	0	
13	0	0	0	0	0	514	507	511	31	0	
14	0	0	0	0	1	511	508	509	31	0	
15	0	0	0	0	0	514	508	509	32	0	
0	0	0	0	0	0	511	508	508	31	0	
1	0	0	0	0	0	513	508	511	31	0	
2	0	0	0	0	0	512	508	513	31	0	
3	0	0	0	0	0	515	510	512	31	0	
4	0	0	0	0	0	515	509	511	31	0	
5	0	0	0	0	0	513	512	511	31	0	
6	0	0	0	0	0	515	509	510	32	0	
7	0	0	0	0	0	514	512	512	32	0	
8	0	0	0	0	0	515	512	511	31	0	
9	0	0	0	0	0	516	515	509	32	0	
10	0	0	0	0	0	517	512	514	32	0	
11	0	0	0	0	0	515	509	513	32	0	
12	0	0	0	0	0	514	508	511	32	0	
13	0	0	0	0	0	515	508	511	32	0	
14	0	0	0	0	0	516	511	511	32	0	
15	0	0	0	0	0	514	510	509	31	0	
0	0	0	0	0	0	511	508	512	31	0	
1	0	0	0	0	0	513	509	513	32	0	
2	0	0	0	0	0	512	511	515	31	0	
3	0	0	0	0	0	510	513	512	32	0	
4	0	0	0	0	0	510	507	513	32	0	
5	0	0	0	0	0	515	510	512	32	0	
6	0	0	0	0	1	512	514	512	31	0	
7	0	0	0	0	0	514	510	512	32	0	
8	0	0	0	0	0	515	505	508	31	0	
9	0	0	0	0	0	514	508	509	31	0	
10	0	0	0	0	0	512	510	512	31	0	
11	0	0	0	0	0	513	509	513	32	0	
12	0	0	0	0	0	515	511	512	31	0	
13	0	0	0	0	0	516	510	510	31	0	
14	0	0	0	0	1	519	512	507	32	0	
15	0	0	0	0	0	516	508	511	31	0	
0	0	0	0	0	0	510	506	511	32	0	
1	0	0	0	0	0	511	511	510	32	0	
2	0	0	0	0	0	510	510	510	32	0	
3	0	0	0	0	0	515	511	509	31	0	
4	0	0	0	0	0	514	508	510	32	0	
5	0	0	0	0	0	512	508	511	32	0	
6	0	0	0	0	1	514	509	511	32	0	
7	0	0	0	0	0	514	510	511	32	0	
8	0	0	0	0	0	515	510	514	32	0	
9	0	0	0	0	0	514	510	514	32	0	
