# OpenSignals Text File Format. Version 1
# {"98:D3:51:FE:6E:5C": {"position": 0, "device": "bitalino_rev", "device name": "98:D3:51:FE:6E:5C", "device connection": "BTH98:D3:51:FE:6E:5C", "sampling rate": 1000, "resolution": [4, 1, 1, 1, 1, 10, 10, 10, 10, 6, 6], "firmware version": 1282, "comments": "", "keywords": "", "mode": 0, "sync interval": 2, "date": "2026-6-12", "time": "12:38:59.597", "channels": [1, 2, 3, 4, 5, 6], "sensor": ["RAW", "RAW", "RAW", "RAW", "RAW", "RAW"], "label": ["A1", "A2", "A3", "A4", "A5", "A6"], "column": ["nSeq", "I1", "I2", "O1", "O2", "A1", "A2", "A3", "A4", "A5", "A6"], "special": [{}, {}, {}, {}, {}, {}], "digital IO": [0, 0, 1, 1]}}
# EndOfHeader
0	0	0	0	0	0	514	510	510	32	0	
1	0	0	0	0	0	512	510	508	31	0	
2	0	0	0	0	2	511	511	512	31	0	
3	0	0	0	0	0	512	511	510	31	0	
4	0	0	0	0	0	514	510	510	31	0	
5	0	0	0	0	0	514	509	510	32	0	
6	0	0	0	0	0	517	508	512	32	0	
7	0	0	0	0	0	516	509	512	32	0	
8	0	0	0	0	0	518	508	512	31	0	
9	0	0	0	0	0	512	506	511	31	0	
10	0	0	0	0	2	512	507	510	31	0	
11	0	0	0	0	0	514	508	511	32	0	
12	0	0	0	0	0	512	510	512	32	0	
13	0	0	0	0	0	510	510	511	31	0	
14	0	0	0	0	0	511	512	512	31	0	
15	0	0	0	0	0	511	513	514	32	0	
0	0	0	0	0	0	513	511	512	32	0	
1	0	0	0	0	0	514	511	514	31	0	
2	0	0	0	0	2	512	508	512	31	0	
3	0	0	0	0	0	511	508	509	31	0	
4	0	0	0	0	0	512	507	507	31	0	
5	0	0	0	0	0	514	508	511	31	0	
6	0	0	0	0	0	515	509	511	31	0	
7	0	0	0	0	0	514	510	511	32	0	
8	0	0	0	0	0	516	509	512	32	0	
9	0	0	0	0	0	519	511	509	32	0	
10	0	0	0	0	2	516	511	510	32	0	
11	0	0	0	0	0	514	511	511	31	0	
12	0	0	0	0	0	515	511	512	32	0	
13	0	0	0	0	0	514	510	513	32	0	
14	0	0	0	0	0	514	510	510	32	0	
15	0	0	0	0	0	510	510	511	32	0	
0	0	0	0	0	0	511	511	512	32	0	
1	0	0	0	0	0	512	512	512	32	0	
2	0	0	0	0	2	516	510	510	31	0	
3	0	0	0	0	0	515	507	509	32	0	
4	0	0	0	0	0	513	508	511	32	0	
5	0	0	0	0	0	512	507	512	32	0	
6	0	0	0	0	0	513	507	511	32	0	
7	0	0	0	0	0	513	509	511	31	0	
8	0	0	0	0	0	516	508	511	31	0	
9	0	0	0	0	0	516	508	512	32	0	
10	0	0	0	0	2	513	510	510	32	0	
11	0	0	0	0	0	512	511	510	31	0	
12	0	0	0	0	0	513	511	509	31	0	
13	0	0	0	0	0	516	511	511	32	0	
14	0	0	0	0	0	516	508	512	32	0	
15	0	0	0	0	0	516	512	512	32	0	
0	0	0	0	0	0	514	510	513	31	0	
1	0	0	0	0	0	515	508	511	31	0	
2	0	0	0	0	1	515	508	511	32	0	
3	0	0	0	0	0	515	512	511	32	0	
4	0	0	0	0	0	513	511	511	31	0	
5	0	0	0	0	0	511	509	512	32	0	
6	0	0	0	0	0	512	509	511	32	0	
7	0	0	0	0	0	513	508	508	31	0	
8	0	0	0	0	0	513	509	510	31	0	
9	0	0	0	0	0	516	508	513	31	0	
10	0	0	0	0	1	515	507	513	31	0	
11	0	0	0	0	0	514	509	510	31	0	
12	0	0	0	0	0	515	507	513	31	0	
13	0	0	0	0	0	513	507	510	32	0	
14	0	0	0	0	0	512	510	511	32	0	
15	0	0	0	0	0	511	512	513	32	0	
0	0	0	0	0	0	512	512	511	32	0	
1	0	0	0	0	0	512	514	511	32	0	
2	0	0	0	0	2	513	513	512	32	0	
3	0	0	0	0	0	512	514	511	31	0	
4	0	0	0	0	0	514	513	511	31	0	
5	0	0	0	0	0	515	510	509	31	0	
6	0	0	0	0	0	516	510	508	31	0	
7	0	0	0	0	0	514	505	508	31	0	
8	0	0	0	0	0	514	506	509	31	0	
9	0	0	0	0	0	512	508	511	31	0	
10	0	0	0	0	2	513	507	511	32	0	
11	0	0	0	0	0	513	510	512	32	0	
12	0	0	0	0	0	512	505	511	32	0	
13	0	0	0	0	0	511	509	511	32	0	
14	0	0	0	0	0	514	511	511	32	0	
15	0	0	0	0	0	511	509	512	32	0	
0	0	0	0	0	0	513	508	511	32	0	
1	0	0	0	0	0	513	510	512	32	0	
2	0	0	0	0	2	515	511	512	32	0	
3	0	0	0	0	0	515	511	510	32	0	
4	0	0	0	0	0	513	510	511	32	0	
5	0	0	0	0	0	515	511	510	31	0	
6	0	0	0	0	0	515	511	509	32	0	
7	0	0	0	0	0	517	508	513	32	0	
8	0	0	0	0	0	517	509	512	31	0	
9	0	0	0	0	0	515	510	512	31	0	
10	0	0	0	0	2	513	511	513	31	0	
11	0	0	0	0	0	515	513	515	31	0	
12	0	0	0	0	0	513	512	513	32	0	
13	0	0	0	0	0	514	507	510	31	0	
14	0	0	0	0	0	515	507	511	32	0	
15	0	0	0	0	0	515	509	510	31	0	
0	0	0	0	0	0	514	505	510	32	0	
1	0	0	0	0	0	514	509	510	32	0	
2	0	0	0	0	2	515	509	510	31	0	
3	0	0	0	0	0	513	512	509	32	0	
4	0	0	0	0	0	515	512	511	31	0	
5	0	0	0	0	0	515	508	511	31	0	
6	0	0	0	0	0	516	508	509	31	0	
7	0	0	0	0	0	515	507	507	31	0	
8	0	0	0	0	0	512	508	510	31	0	
9	0	0	0	0	0	513	509	508	31	0	
10	0	0	0	0	2	514	510	511	31	0	
11	0	0	0	0	0	511	510	511	32	0	
12	0	0	0	0	0	512	509	512	32	0	
13	0	0	0	0	0	512	510	512	32	0	
14	0	0	0	0	0	512	510	510	32	0	
15	0	0	0	0	0	511	510	512	31	0	
0	0	0	0	0	0	513	510	511	31	0	
1	0	0	0	0	0	514	510	513	32	0	
2	0	0	0	0	2	515	510	511	32	0	
3	0	0	0	0	0	513	511	512	32	0	
4	0	0	0	0	0	515	512	514	31	0	
5	0	0	0	0	0	513	511	512	32	0	
6	0	0	0	0	0	514	512	511	32	0	
7	0	0	0	0	0	514	512	511	32	0	
8	0	0	0	0	0	516	510	511	31	0	
9	0	0	0	0	0	517	509	508	31	0	
10	0	0	0	0	2	515	510	511	31	0	
11	0	0	0	0	0	516	512	510	31	0	
12	0	0	0	0	0	516	510	512	32	0	
13	0	0	0	0	0	512	508	511	32	0	
14	0	0	0	0	0	510	512	514	32	0	
15	0	0	0	0	0	511	511	512	31	0	
0	0	0	0	0	0	512	511	512	31	0	
1	0	0	0	0	0	513	508	511	32	0	
2	0	0	0	0	2	512	507	507	31	0	
3	0	0	0	0	0	516	507	509	32	0	
4	0	0	0	0	0	515	508	510	31	0	
5	0	0	0	0	0	513	506	508	32	0	
6	0	0	0	0	0	515	508	512	32	0	
7	0	0	0	0	0	513	507	509	32	0	
8	0	0	0	0	0	515	508	510	31	0	
9	0	0	0	0	0	514	509	511	32	0	
10	0	0	0	0	2	514	507	510	31	0	
11	0	0	0	0	0	513	510	514	31	0	
12	0	0	0	0	0	513	511	512	31	0	
13	0	0	0	0	0	513	510	511	31	0	
14	0	0	0	0	0	512	511	514	32	0	
15	0	0	0	0	0	511	512	512	31	0	
0	0	0	0	0	0	515	510	512	32	0	
1	0	0	0	0	0	513	511	510	31	0	
2	0	0	0	0	2	515	510	509	32	0	
3	0	0	0	0	0	514	510	510	32	0	
4	0	0	0	0	0	514	513	511	31	0	
5	0	0	0	0	0	512	510	513	32	0	
6	0	0	0	0	0	512	510	512	32	0	
7	0	0	0	0	0	513	509	510	32	0	
8	0	0	0	0	0	514	509	512	31	0	
9	0	0	0	0	0	513	510	509	31	0	
10	0	0	0	0	1	514	509	512	32	0	
11	0	0	0	0	0	513	510	510	32	0	
12	0	0	0	0	0	513	508	513	32	0	
13	0	0	0	0	0	513	508	513	32	0	
14	0	0	0	0	0	517	508	511	31	0	
15	0	0	0	0	0	516	510	510	31	0	
0	0	0	0	0	0	516	506	512	31	0	
1	0	0	0	0	0	515	508	511	31	0	
2	0	0	0	0	1	515	511	511	31	0	
3	0	0	0	0	0	514	511	511	31	0	
4	0	0	0	0	0	514	509	510	32	0	
5	0	0	0	0	0	514	509	513	32	0	
6	0	0	0	0	0	514	509	513	32	0	
7	0	0	0	0	0	515	510	511	32	0	
8	0	0	0	0	0	514	510	513	32	0	
9	0	0	0	0	0	513	511	511	31	0	
10	0	0	0	0	1	514	513	511	32	0	
11	0	0	0	0	0	515	508	510	31	0	
12	0	0	0	0	0	513	509	513	31	0	
13	0	0	0	0	0	512	508	511	32	0	
14	0	0	0	0	0	511	508	512	32	0	
15	0	0	0	0	0	512	509	512	31	0	
0	0	0	0	0	0	515	507	509	32	0	
1	0	0	0	0	0	512	507	511	32	0	
2	0	0	0	0	2	514	509	512	31	0	
3	0	0	0	0	0	515	509	513	32	0	
4	0	0	0	0	0	513	511	512	32	0	
5	0	0	0	0	0	512	509	510	31	0	
6	0	0	0	0	0	511	511	511	31	0	
7	0	0	0	0	0	513	510	512	32	0	
8	0	0	0	0	0	513	509	511	31	0	
9	0	0	0	0	0	515	510	510	31	0	
10	0	0	0	0	2	517	511	512	32	0	
11	0	0	0	0	0	516	512	511	32	0	
12	0	0	0	0	0	516	509	511	31	0	
13	0	0	0	0	0	516	509	509	31	0	
14	0	0	0	0	0	514	509	510	32	0	
15	0	0	0	0	0	515	508	510	31	0	
0	0	0	0	0	0	514	509	511	31	0	
1	0	0	0	0	0	512	507	510	32	0	
2	0	0	0	0	2	513	509	511	31	0	
3	0	0	0	0	0	512	510	512	32	0	
4	0	0	0	0	0	511	508	509	32	0	
5	0	0	0	0	0	513	510	512	32	0	
6	0	0	0	0	0	513	510	510	32	0	
7	0	0	0	0	0	513	509	512	32	0	
8	0	0	0	0	0	515	508	512	32	0	
9	0	0	0	0	0	516	510	510	31	0	
10	0	0	0	0	2	514	510	513	31	0	
11	0	0	0	0	0	517	510	512	31	0	
12	0	0	0	0	0	516	513	512	31	0	
13	0	0	0	0	0	515	511	510	31	0	
14	0	0	0	0	0	514	508	510	32	0	
15	0	0	0	0	0	513	511	512	31	0	
0	0	0	0	0	0	510	512	513	31	0	
1	0	0	0	0	0	511	511	512	31	0	
2	0	0	0	0	2	512	509	513	32	0	
3	0	0	0	0	0	514	510	511	32	0	
4	0	0	0	0	0	513	513	512	32	0	
5	0	0	0	0	0	515	510	514	32	0	
6	0	0	0	0	0	515	507	513	32	0	
7	0	0	0	0	0	513	507	513	32	0	
8	0	0	0	0	0	513	508	513	32	0	
9	0	0	0	0	0	513	505	512	32	0	
10	0	0	0	0	2	513	508	510	32	0	
11	0	0	0	0	0	515	508	509	31	0	
12	0	0	0	0	0	515	509	509	32	0	
13	0	0	0	0	0	515	507	509	31	0	
14	0	0	0	0	0	515	512	511	31	0	
15	0	0	0	0	0	513	511	510	31	0	
0	0	0	0	0	0	516	511	511	31	0	
1	0	0	0	0	0	516	511	510	31	0	
2	0	0	0	0	2	515	509	509	31	0	
3	0	0	0	0	0	512	512	510	32	0	
4	0	0	0	0	0	513	509	510	32	0	
5	0	0	0	0	0	514	512	512	32	0	
6	0	0	0	0	0	513	515	510	32	0	
7	0	0	0	0	0	510	512	511	31	0	
8	0	0	0	0	0	512	508	512	31	0	
9	0	0	0	0	0	516	507	513	31	0	
10	0	0	0	0	2	513	505	513	31	0	
11	0	0	0	0	0	515	507	509	32	0	
12	0	0	0	0	0	515	507	511	32	0	
13	0	0	0	0	0	515	508	510	32	0	
14	0	0	0	0	0	516	507	513	32	0	
15	0	0	0	0	0	515	508	513	32	0	
0	0	0	0	0	0	515	509	512	32	0	
1	0	0	0	0	0	517	510	512	31	0	
2	0	0	0	0	2	515	510	510	31	0	
3	0	0	0	0	0	512	511	507	31	0	
4	0	0	0	0	0	515	512	508	31	0	
5	0	0	0	0	0	512	513	511	31	0	
6	0	0	0	0	0	514	513	510	31	0	
7	0	0	0	0	0	512	513	513	32	0	
8	0	0	0	0	0	510	511	510	32	0	
9	0	0	0	0	0	511	508	510	32	0	
10	0	0	0	0	2	514	510	511	32	0	
11	0	0	0	0	0	516	509	510	31	0	
12	0	0	0	0	0	514	510	511	31	0	
13	0	0	0	0	0	516	510	511	31	0	
14	0	0	0	0	0	517	507	511	31	0	
15	0	0	0	0	0	518	506	512	31	0	
0	0	0	0	0	0	516	507	511	32	0	
1	0	0	0	0	0	514	507	511	32	0	
2	0	0	0	0	2	512	507	509	32	0	
3	0	0	0	0	0	515	511	513	31	0	
4	0	0	0	0	0	510	513	511	31	0	
5	0	0	0	0	0	512	511	509	31	0	
6	0	0	0	0	0	510	511	511	31	0	
7	0	0	0	0	0	511	511	512	31	0	
8	0	0	0	0	0	512	510	512	31	0	
9	0	0	0	0	0	511	508	511	32	0	
10	0	0	0	0	1	512	510	511	32	0	
11	0	0	0	0	0	515	511	511	32	0	
12	0	0	0	0	0	515	510	512	32	0	
13	0	0	0	0	0	515	510	511	32	0	
14	0	0	0	0	0	515	509	511	31	0	
15	0	0	0	0	0	515	510	509	31	0	
0	0	0	0	0	0	515	508	512	31	0	
1	0	0	0	0	0	515	511	510	31	0	
2	0	0	0	0	1	514	507	511	32	0	
3	0	0	0	0	0	516	505	513	31	0	
4	0	0	0	0	0	514	508	512	32	0	
5	0	0	0	0	0	515	509	512	32	0	
6	0	0	0	0	0	514	511	512	32	0	
7	0	0	0	0	0	515	509	510	31	0	
8	0	0	0	0	0	514	511	511	32	0	
9	0	0	0	0	0	513	509	511	32	0	
10	0	0	0	0	1	515	510	513	32	0	
11	0	0	0	0	0	515	510	510	32	0	
12	0	0	0	0	0	513	510	511	31	0	
13	0	0	0	0	0	516	509	510	31	0	
14	0	0	0	0	0	514	512	511	31	0	
15	0	0	0	0	0	513	510	510	31	0	
0	0	0	0	0	0	515	510	513	31	0	
1	0	0	0	0	0	514	511	508	31	0	
2	0	0	0	0	2	515	509	511	31	0	
3	0	0	0	0	0	513	510	511	32	0	
4	0	0	0	0	0	511	508	513	32	0	
5	0	0	0	0	0	511	508	510	31	0	
6	0	0	0	0	0	512	511	511	32	0	
7	0	0	0	0	0	513	511	512	32	0	
8	0	0	0	0	0	511	511	514	32	0	
9	0	0	0	0	0	512	512	513	31	0	
10	0	0	0	0	2	515	510	511	31	0	
11	0	0	0	0	0	513	512	511	32	0	
12	0	0	0	0	0	514	511	508	31	0	
13	0	0	0	0	0	514	510	510	31	0	
14	0	0	0	0	0	516	510	510	31	0	
15	0	0	0	0	0	514	507	509	31	0	
0	0	0	0	0	0	515	506	512	31	0	
1	0	0	0	0	0	514	507	512	32	0	
2	0	0	0	0	2	517	508	509	31	0	
3	0	0	0	0	0	517	510	510	31	0	
4	0	0	0	0	0	519	507	509	31	0	
5	0	0	0	0	0	515	508	512	31	0	
6	0	0	0	0	0	512	508	512	31	0	
7	0	0	0	0	0	512	508	511	32	0	
8	0	0	0	0	0	512	506	511	32	0	
9	0	0	0	0	0	513	508	510	32	0	
10	0	0	0	0	2	514	510	509	32	0	
11	0	0	0	0	0	514	512	510	32	0	
12	0	0	0	0	0	515	512	510	32	0	
13	0	0	0	0	0	514	512	512	32	0	
14	0	0	0	0	0	514	512	513	32	0	
15	0	0	0	0	0	515	511	512	31	0	
0	0	0	0	0	0	515	511	513	32	0	
1	0	0	0	0	0	516	510	511	32	0	
2	0	0	0	0	2	517	509	511	32	0	
3	0	0	0	0	0	516	511	512	31	0	
4	0	0	0	0	0	513	513	512	32	0	
5	0	0	0	0	0	516	510	513	32	0	
6	0	0	0	0	0	514	512	510	32	0	
7	0	0	0	0	0	515	510	511	32	0	
8	0	0	0	0	0	513	511	512	31	0	
9	0	0	0	0	0	512	510	511	31	0	
10	0	0	0	0	2	511	508	513	32	0	
11	0	0	0	0	0	512	510	512	32	0	
12	0	0	0	0	0	514	511	511	32	0	
13	0	0	0	0	0	514	508	512	32	0	
14	0	0	0	0	0	511	508	508	32	0	
15	0	0	0	0	0	515	508	509	32	0	
0	0	0	0	0	0	515	507	505	31	0	
1	0	0	0	0	0	515	507	511	32	0	
2	0	0	0	0	2	515	507	509	32	0	
3	0	0	0	0	0	513	508	509	31	0	
4	0	0	0	0	0	513	509	510	31	0	
5	0	0	0	0	0	513	511	511	32	0	
6	0	0	0	0	0	513	509	508	32	0	
7	0	0	0	0	0	515	508	510	32	0	
8	0	0	0	0	0	515	508	510	31	0	
9	0	0	0	0	0	513	509	510	31	0	
10	0	0	0	0	2	513	511	511	31	0	
11	0	0	0	0	0	512	510	511	31	0	
12	0	0	0	0	0	512	509	512	31	0	
13	0	0	0	0	0	512	508	512	31	0	
14	0	0	0	0	0	512	508	511	31	0	
15	0	0	0	0	0	513	509	512	31	0	
0	0	0	0	0	0	514	511	511	31	0	
1	0	0	0	0	0	513	511	511	31	0	
2	0	0	0	0	2	515	509	511	31	0	
3	0	0	0	0	0	515	511	511	31	0	
4	0	0	0	0	0	515	512	512	32	0	
5	0	0	0	0	0	515	510	511	32	0	
6	0	0	0	0	0	513	510	509	31	0	
7	0	0	0	0	0	515	509	510	31	0	
8	0	0	0	0	0	513	508	511	31	0	
9	0	0	0	0	0	513	508	512	32	0	
10	0	0	0	0	2	513	513	516	32	0	
11	0	0	0	0	0	512	512	514	32	0	
12	0	0	0	0	0	516	510	514	32	0	
13	0	0	0	0	0	514	511	512	32	0	
14	0	0	0	0	0	515	511	512	32	0	
15	0	0	0	0	0	514	510	514	32	0	
0	0	0	0	0	0	514	512	513	31	0	
1	0	0	0	0	0	516	511	514	32	0	
2	0	0	0	0	1	515	511	511	32	0	
3	0	0	0	0	0	513	511	512	31	0	
4	0	0	0	0	0	513	508	511	31	0	
5	0	0	0	0	0	515	509	511	31	0	
6	0	0	0	0	0	516	510	512	32	0	
7	0	0	0	0	0	517	509	509	32	0	
8	0	0	0	0	0	514	507	512	31	0	
9	0	0	0	0	0	512	508	512	32	0	
10	0	0	0	0	1	513	508	511	32	0	
11	0	0	0	0	0	512	508	510	31	0	
12	0	0	0	0	0	512	508	511	31	0	
13	0	0	0	0	0	514	510	512	32	0	
14	0	0	0	0	0	513	511	511	32	0	
15	0	0	0	0	0	516	510	510	32	0	
0	0	0	0	0	0	513	508	510	31	0	
1	0	0	0	0	0	516	507	509	32	0	
2	0	0	0	0	1	515	507	509	31	0	
3	0	0	0	0	0	515	511	509	32	0	
4	0	0	0	0	0	513	510	511	31	0	
5	0	0	0	0	0	514	511	511	31	0	
6	0	0	0	0	0	513	508	511	31	0	
7	0	0	0	0	0	513	508	512	31	0	
8	0	0	0	0	0	516	509	510	32	0	
9	0	0	0	0	0	516	512	511	31	0	
10	0	0	0	0	2	515	509	510	32	0	
11	0	0	0	0	0	512	511	513	32	0	
12	0	0	0	0	0	513	510	512	32	0	
13	0	0	0	0	0	513	511	513	32	0	
14	0	0	0	0	0	512	510	512	31	0	
15	0	0	0	0	0	514	510	511	32	0	
0	0	0	0	0	0	514	509	510	32	0	
1	0	0	0	0	0	516	510	511	31	0	
2	0	0	0	0	2	512	508	510	31	0	
3	0	0	0	0	0	514	508	511	31	0	
4	0	0	0	0	0	514	507	512	32	0	
5	0	0	0	0	0	515	507	510	31	0	
6	0	0	0	0	0	513	509	512	32	0	
7	0	0	0	0	0	512	510	510	31	0	
8	0	0	0	0	0	515	508	508	32	0	
9	0	0	0	0	0	514	512	510	31	0	
10	0	0	0	0	2	514	512	508	31	0	
11	0	0	0	0	0	510	512	511	32	0	
12	0	0	0	0	0	513	512	512	32	0	
13	0	0	0	0	0	513	511	512	32	0	
14	0	0	0	0	0	512	510	512	32	0	
15	0	0	0	0	0	514	510	512	32	0	
0	0	0	0	0	0	513	512	511	32	0	
1	0	0	0	0	0	515	507	508	31	0	
2	0	0	0	0	2	513	509	510	32	0	
3	0	0	0	0	0	513	509	510	32	0	
4	0	0	0	0	0	518	508	509	31	0	
5	0	0	0	0	0	517	510	511	31	0	
6	0	0	0	0	0	515	510	510	31	0	
7	0	0	0	0	0	516	507	511	31	0	
8	0	0	0	0	0	514	508	509	31	0	
9	0	0	0	0	0	515	510	511	31	0	
10	0	0	0	0	2	512	512	513	32	0	
11	0	0	0	0	0	513	510	511	32	0	
12	0	0	0	0	0	512	511	511	32	0	
13	0	0	0	0	0	511	509	515	32	0	
14	0	0	0	0	0	513	510	510	32	0	
15	0	0	0	0	0	511	511	513	31	0	
0	0	0	0	0	0	512	511	511	32	0	
1	0	0	0	0	0	510	510	511	31	0	
2	0	0	0	0	2	512	511	512	32	0	
3	0	0	0	0	0	511	509	512	32	0	
4	0	0	0	0	0	516	510	511	31	0	
5	0	0	0	0	0	516	509	511	31	0	
6	0	0	0	0	0	516	506	510	31	0	
7	0	0	0	0	0	518	508	508	31	0	
8	0	0	0	0	0	515	508	511	32	0	
9	0	0	0	0	0	515	510	510	31	0	
10	0	0	0	0	2	515	510	511	32	0	
11	0	0	0	0	0	515	511	512	32	0	
12	0	0	0	0	0	512	511	512	31	0	
13	0	0	0	0	0	515	511	513	32	0	
14	0	0	0	0	0	514	510	511	32	0	
15	0	0	0	0	0	514	508	510	32	0	
0	0	0	0	0	0	514	511	508	32	0	
1	0	0	0	0	0	512	508	510	31	0	
2	0	0	0	0	2	512	507	510	31	0	
3	0	0	0	0	0	513	510	512	32	0	
4	0	0	0	0	0	512	510	513	32	0	
5	0	0	0	0	0	514	511	512	32	0	
6	0	0	0	0	0	513	510	510	32	0	
7	0	0	0	0	0	515	511	511	31	0	
8	0	0	0	0	0	515	510	510	31	0	
9	0	0	0	0	0	514	509	510	31	0	
10	0	0	0	0	2	512	508	511	31	0	
11	0	0	0	0	0	514	510	511	32	0	
12	0	0	0	0	0	515	511	511	31	0	
13	0	0	0	0	0	514	513	511	31	0	
14	0	0	0	0	0	513	511	511	32	0	
15	0	0	0	0	0	513	511	510	32	0	
0	0	0	0	0	0	516	508	511	32	0	
1	0	0	0	0	0	514	509	513	32	0	
2	0	0	0	0	2	512	511	513	32	0	
3	0	0	0	0	0	511	511	511	32	0	
4	0	0	0	0	0	511	508	510	32	0	
5	0	0	0	0	0	512	506	509	32	0	
6	0	0	0	0	0	516	509	512	31	0	
7	0	0	0	0	0	515	508	510	31	0	
8	0	0	0	0	0	517	509	511	32	0	
9	0	0	0	0	0	514	509	511	31	0	
10	0	0	0	0	2	514	511	512	31	0	
11	0	0	0	0	0	514	511	511	31	0	
12	0	0	0	0	0	512	508	510	31	0	
13	0	0	0	0	0	514	511	513	32	0	
14	0	0	0	0	0	512	510	511	32	0	
15	0	0	0	0	0	511	507	512	31	0	
0	0	0	0	0	0	515	509	512	32	0	
1	0	0	0	0	0	515	510	512	32	0	
2	0	0	0	0	1	516	510	513	31	0	
3	0	0	0	0	0	516	510	510	31	0	
4	0	0	0	0	0	514	510	511	31	0	
5	0	0	0	0	0	512	510	509	31	0	
6	0	0	0	0	0	512	510	510	31	0	
7	0	0	0	0	0	513	509	512	32	0	
8	0	0	0	0	0	513	509	510	32	0	
9	0	0	0	0	0	515	509	510	31	0	
10	0	0	0	0	1	516	508	510	31	0	
11	0	0	0	0	0	516	511	513	31	0	
12	0	0	0	0	0	514	510	513	31	0	
13	0	0	0	0	0	514	511	515	31	0	
14	0	0	0	0	0	513	512	511	32	0	
15	0	0	0	0	0	512	510	512	32	0	
0	0	0	0	0	0	512	511	510	32	0	
1	0	0	0	0	0	512	510	510	32	0	
2	0	0	0	0	1	515	510	510	32	0	
3	0	0	0	0	0	513	509	510	32	0	
4	0	0	0	0	0	514	509	511	31	0	
5	0	0	0	0	0	514	509	511	31	0	
6	0	0	0	0	0	511	509	512	32	0	
7	0	0	0	0	0	513	510	513	32	0	
8	0	0	0	0	0	516	509	512	31	0	
9	0	0	0	0	0	515	510	511	32	0	
10	0	0	0	0	2	515	509	509	31	0	
11	0	0	0	0	0	515	509	510	32	0	
12	0	0	0	0	0	518	510	511	31	0	
13	0	0	0	0	0	515	509	511	31	0	
14	0	0	0	0	0	516	510	512	32	0	
15	0	0	0	0	0	513	510	512	32	0	
0	0	0	0	0	0	514	510	512	32	0	
1	0	0	0	0	0	512	511	511	31	0	
2	0	0	0	0	2	512	510	511	32	0	
3	0	0	0	0	0	514	511	508	31	0	
4	0	0	0	0	0	515	510	510	31	0	
5	0	0	0	0	0	514	511	510	31	0	
6	0	0	0	0	0	512	510	509	31	0	
7	0	0	0	0	0	512	509	512	31	0	
8	0	0	0	0	0	513	510	511	31	0	
9	0	0	0	0	0	515	508	510	31	0	
10	0	0	0	0	2	513	509	511	32	0	
11	0	0	0	0	0	514	509	512	32	0	
12	0	0	0	0	0	516	511	513	32	0	
13	0	0	0	0	0	516	510	512	31	0	
14	0	0	0	0	0	515	511	513	32	0	
15	0	0	0	0	0	512	511	512	32	0	
0	0	0	0	0	0	515	508	511	31	0	
1	0	0	0	0	0	512	510	512	32	0	
2	0	0	0	0	2	512	508	511	31	0	
3	0	0	0	0	0	513	510	512	31	0	
4	0	0	0	0	0	510	511	511	31	0	
5	0	0	0	0	0	511	512	511	32	0	
6	0	0	0	0	0	514	510	511	32	0	
7	0	0	0	0	0	511	511	511	31	0	
8	0	0	0	0	0	513	509	511	31	0	
9	0	0	0	0	0	513	511	510	32	0	
10	0	0	0	0	2	517	509	510	31	0	
11	0	0	0	0	0	516	510	512	31	0	
12	0	0	0	0	0	517	510	512	31	0	
13	0	0	0	0	0	514	508	510	32	0	
14	0	0	0	0	0	516	509	512	32	0	
15	0	0	0	0	0	516	510	510	31	0	
0	0	0	0	0	0	515	510	510	32	0	
1	0	0	0	0	0	513	509	512	31	0	
2	0	0	0	0	2	514	508	511	31	0	
3	0	0	0	0	0	512	509	510	32	0	
4	0	0	0	0	0	513	511	508	31	0	
5	0	0	0	0	0	511	509	508	32	0	
6	0	0	0	0	0	511	508	511	32	0	
7	0	0	0	0	0	511	510	512	32	0	
8	0	0	0	0	0	511	508	512	32	0	
9	0	0	0	0	0	513	510	513	32	0	
10	0	0	0	0	2	512	510	511	32	0	
11	0	0	0	0	0	517	510	511	32	0	
12	0	0	0	0	0	515	511	511	31	0	
13	0	0	0	0	0	515	508	511	31	0	
14	0	0	0	0	0	515	508	510	31	0	
15	0	0	0	0	0	514	511	511	32	0	
0	0	0	0	0	0	515	510	514	32	0	
1	0	0	0	0	0	518	511	511	31	0	
2	0	0	0	0	2	518	510	513	32	0	
3	0	0	0	0	0	515	509	510	32	0	
4	0	0	0	0	0	513	509	512	32	0	
5	0	0	0	0	0	512	508	510	31	0	
6	0	0	0	0	0	511	507	512	32	0	
7	0	0	0	0	0	510	507	510	31	0	
8	0	0	0	0	0	510	508	510	31	0	
9	0	0	0	0	0	510	510	511	32	0	
10	0	0	0	0	2	512	510	512	31	0	
11	0	0	0	0	0	515	510	509	31	0	
12	0	0	0	0	0	516	509	511	31	0	
13	0	0	0	0	0	515	510	511	31	0	
14	0	0	0	0	0	516	511	511	32	0	
15	0	0	0	0	0	516	510	510	32	0	
0	0	0	0	0	0	514	510	509	31	0	
1	0	0	0	0	0	514	511	511	32	0	
2	0	0	0	0	2	516	510	512	32	0	
3	0	0	0	0	0	514	510	513	32	0	
4	0	0	0	0	0	516	508	511	32	0	
5	0	0	0	0	0	513	508	510	32	0	
6	0	0	0	0	0	515	509	513	32	0	
7	0	0	0	0	0	514	509	511	32	0	
8	0	0	0	0	0	513	509	510	32	0	
9	0	0	0	0	0	512	510	511	32	0	
10	0	0	0	0	2	512	513	513	32	0	
11	0	0	0	0	0	513	513	513	32	0	
12	0	0	0	0	0	514	511	511	31	0	
13	0	0	0	0	0	512	508	510	31	0	
14	0	0	0	0	0	513	511	509	31	0	
15	0	0	0	0	0	514	510	512	31	0	
0	0	0	0	0	0	514	510	509	31	0	
1	0	0	0	0	0	513	509	509	32	0	
2	0	0	0	0	1	516	509	511	32	0	
3	0	0	0	0	0	515	510	511	32	0	
4	0	0	0	0	0	515	509	511	32	0	
5	0	0	0	0	0	513	508	512	32	0	
6	0	0	0	0	0	512	508	511	32	0	
7	0	0	0	0	0	512	511	511	31	0	
8	0	0	0	0	0	516	509	511	31	0	
9	0	0	0	0	0	514	511	511	32	0	
10	0	0	0	0	1	513	510	515	32	0	
11	0	0	0	0	0	513	510	511	31	0	
12	0	0	0	0	0	512	510	512	31	0	
13	0	0	0	0	0	512	508	511	32	0	
14	0	0	0	0	0	512	511	509	31	0	
15	0	0	0	0	0	514	511	509	31	0	
0	0	0	0	0	0	513	507	510	31	0	
1	0	0	0	0	0	513	507	512	31	0	
2	0	0	0	0	1	513	507	509	31	0	
3	0	0	0	0	0	514	508	511	31	0	
4	0	0	0	0	0	515	510	513	32	0	
5	0	0	0	0	0	513	511	511	31	0	
6	0	0	0	0	0	512	508	510	31	0	
7	0	0	0	0	0	515	509	510	32	0	
8	0	0	0	0	0	514	510	513	32	0	
9	0	0	0	0	0	513	510	513	32	0	
10	0	0	0	0	2	513	510	513	32	0	
11	0	0	0	0	0	514	508	511	32	0	
12	0	0	0	0	0	515	509	509	31	0	
13	0	0	0	0	0	515	511	510	32	0	
14	0	0	0	0	0	515	512	512	32	0	
15	0	0	0	0	0	517	509	510	31	0	
0	0	0	0	0	0	513	511	509	32	0	
1	0	0	0	0	0	514	509	510	32	0	
2	0	0	0	0	2	515	511	511	31	0	
3	0	0	0	0	0	516	509	513	31	0	
4	0	0	0	0	0	513	511	513	32	0	
5	0	0	0	0	0	512	510	511	32	0	
6	0	0	0	0	0	514	511	511	31	0	
7	0	0	0	0	0	513	509	511	32	0	
8	0	0	0	0	0	513	510	512	32	0	
9	0	0	0	0	0	513	510	512	31	0	
10	0	0	0	0	2	511	510	513	32	0	
11	0	0	0	0	0	512	510	511	32	0	
12	0	0	0	0	0	513	508	512	32	0	
13	0	0	0	0	0	516	507	511	32	0	
14	0	0	0	0	0	517	506	511	32	0	
15	0	0	0	0	0	515	506	512	32	0	
0	0	0	0	0	0	515	510	510	32	0	
1	0	0	0	0	0	514	510	508	31	0	
2	0	0	0	0	2	512	510	510	31	0	
3	0	0	0	0	0	511	509	511	31	0	
4	0	0	0	0	0	515	510	513	32	0	
5	0	0	0	0	0	513	509	510	31	0	
6	0	0	0	0	0	514	508	511	32	0	
7	0	0	0	0	0	514	505	508	32	0	
8	0	0	0	0	0	511	509	509	31	0	
9	0	0	0	0	0	511	510	512	31	0	
10	0	0	0	0	2	513	508	512	32	0	
11	0	0	0	0	0	513	509	510	32	0	
12	0	0	0	0	0	514	508	511	32	0	
13	0	0	0	0	0	516	511	513	32	0	
14	0	0	0	0	0	514	512	511	32	0	
15	0	0	0	0	0	517	511	510	32	0	
0	0	0	0	0	0	514	511	510	31	0	
1	0	0	0	0	0	515	511	511	31	0	
2	0	0	0	0	2	514	509	511	31	0	
3	0	0	0	0	0	514	509	512	31	0	
4	0	0	0	0	0	515	511	510	31	0	
5	0	0	0	0	0	515	510	513	31	0	
6	0	0	0	0	0	513	510	513	32	0	
7	0	0	0	0	0	513	510	514	32	0	
8	0	0	0	0	0	514	511	511	32	0	
9	0	0	0	0	0	513	511	510	32	0	
10	0	0	0	0	2	511	508	511	32	0	
11	0	0	0	0	0	513	511	510	31	0	
12	0	0	0	0	0	517	508	509	31	0	
13	0	0	0	0	0	517	508	512	31	0	
14	0	0	0	0	0	515	510	510	32	0	
15	0	0	0	0	0	513	509	510	31	0	
0	0	0	0	0	0	513	509	511	31	0	
1	0	0	0	0	0	515	508	510	32	0	
2	0	0	0	0	2	515	510	512	32	0	
3	0	0	0	0	0	513	510	515	32	0	
4	0	0	0	0	0	513	509	510	31	0	
5	0	0	0	0	0	515	508	508	32	0	
6	0	0	0	0	0	513	507	513	32	0	
7	0	0	0	0	0	515	509	512	32	0	
8	0	0	0	0	0	515	509	511	31	0	
9	0	0	0	0	0	513	511	510	32	0	
10	0	0	0	0	2	511	511	513	32	0	
11	0	0	0	0	0	512	510	512	31	0	
12	0	0	0	0	0	508	508	512	31	0	
13	0	0	0	0	0	512	512	512	31	0	
14	0	0	0	0	0	512	511	510	32	0	
15	0	0	0	0	0	512	510	510	31	0	
0	0	0	0	0	0	515	511	511	31	0	
1	0	0	0	0	0	516	509	513	31	0	
2	0	0	0	0	2	513	508	512	31	0	
3	0	0	0	0	0	514	511	511	32	0	
4	0	0	0	0	0	515	509	511	31	0	
5	0	0	0	0	0	514	510	508	31	0	
6	0	0	0	0	0	514	508	510	31	0	
7	0	0	0	0	0	512	509	513	32	0	
8	0	0	0	0	0	513	510	514	32	0	
9	0	0	0	0	0	514	508	514	32	0	
10	0	0	0	0	1	515	508	511	32	0	
11	0	0	0	0	0	515	508	512	32	0	
12	0	0	0	0	0	516	510	511	32	0	
13	0	0	0	0	0	519	510	511	32	0	
14	0	0	0	0	0	516	507	510	32	0	
15	0	0	0	0	0	516	509	509	31	0	
0	0	0	0	0	0	515	511	510	32	0	
1	0	0	0	0	0	515	511	510	31	0	
2	0	0	0	0	1	514	506	512	31	0	
3	0	0	0	0	0	513	508	511	31	0	
4	0	0	0	0	0	512	513	511	31	0	
5	0	0	0	0	0	514	511	511	32	0	
6	0	0	0	0	0	513	510	511	32	0	
7	0	0	0	0	0	514	511	510	32	0	
8	0	0	0	0	0	513	511	510	32	0	
9	0	0	0	0	0	513	510	512	32	0	
10	0	0	0	0	1	513	510	509	31	0	
11	0	0	0	0	0	514	509	509	31	0	
12	0	0	0	0	0	511	508	510	32	0	
13	0	0	0	0	0	513	510	512	32	0	
14	0	0	0	0	0	514	509	511	31	0	
15	0	0	0	0	0	514	508	512	31	0	
0	0	0	0	0	0	513	510	513	32	0	
1	0	0	0	0	0	514	507	512	32	0	
2	0	0	0	0	2	513	505	510	31	0	
3	0	0	0	0	0	515	508	511	32	0	
4	0	0	0	0	0	515	508	511	31	0	
5	0	0	0	0	0	514	511	511	32	0	
6	0	0	0	0	0	513	509	510	32	0	
7	0	0	0	0	0	512	511	511	32	0	
8	0	0	0	0	0	511	515	513	32	0	
9	0	0	0	0	0	515	512	510	32	0	
10	0	0	0	0	2	512	514	511	31	0	
11	0	0	0	0	0	513	513	511	31	0	
12	0	0	0	0	0	513	512	511	32	0	
13	0	0	0	0	0	513	511	512	31	0	
14	0	0	0	0	0	515	510	511	31	0	
15	0	0	0	0	0	515	510	512	32	0	
0	0	0	0	0	0	515	508	510	31	0	
1	0	0	0	0	0	515	508	512	32	0	
2	0	0	0	0	2	516	507	511	32	0	
3	0	0	0	0	0	515	506	508	31	0	
4	0	0	0	0	0	513	508	510	31	0	
5	0	0	0	0	0	512	510	512	32	0	
6	0	0	0	0	0	513	510	513	31	0	
7	0	0	0	0	0	513	508	512	31	0	
8	0	0	0	0	0	512	508	509	31	0	
9	0	0	0	0	0	511	509	508	31	0	
10	0	0	0	0	2	513	509	511	32	0	
11	0	0	0	0	0	515	509	511	32	0	
12	0	0	0	0	0	515	511	511	32	0	
13	0	0	0	0	0	511	508	514	31	0	
14	0	0	0	0	0	511	510	513	32	0	
15	0	0	0	0	0	514	508	511	32	0	
0	0	0	0	0	0	513	508	510	32	0	
1	0	0	0	0	0	512	510	508	31	0	
2	0	0	0	0	2	512	509	510	31	0	
3	0	0	0	0	0	513	511	512	31	0	
4	0	0	0	0	0	517	512	513	31	0	
5	0	0	0	0	0	515	511	512	32	0	
6	0	0	0	0	0	515	512	510	31	0	
7	0	0	0	0	0	515	508	509	31	0	
8	0	0	0	0	0	515	511	509	31	0	
9	0	0	0	0	0	513	510	510	31	0	
10	0	0	0	0	2	513	508	512	32	0	
11	0	0	0	0	0	513	509	509	32	0	
12	0	0	0	0	0	512	509	514	32	0	
13	0	0	0	0	0	512	509	513	32	0	
14	0	0	0	0	0	514	512	514	32	0	
15	0	0	0	0	0	515	511	511	31	0	
0	0	0	0	0	0	514	510	510	31	0	
1	0	0	0	0	0	515	507	512	31	0	
2	0	0	0	0	2	515	510	511	31	0	
3	0	0	0	0	0	515	508	511	32	0	
4	0	0	0	0	0	517	510	510	31	0	
5	0	0	0	0	0	514	508	510	31	0	
6	0	0	0	0	0	511	510	511	31	0	
7	0	0	0	0	0	513	509	512	31	0	
8	0	0	0	0	0	513	509	510	31	0	
9	0	0	0	0	0	513	509	509	32	0	
10	0	0	0	0	2	513	508	510	32	0	
11	0	0	0	0	0	513	508	510	32	0	
12	0	0	0	0	0	514	506	510	31	0	
13	0	0	0	0	0	515	508	510	32	0	
14	0	0	0	0	0	513	511	510	32	0	
15	0	0	0	0	0	512	510	514	32	0	
0	0	0	0	0	0	513	510	512	31	0	
1	0	0	0	0	0	515	511	512	31	0	
2	0	0	0	0	2	515	510	512	32	0	
3	0	0	0	0	0	516	510	510	31	0	
4	0	0	0	0	0	516	510	509	31	0	
5	0	0	0	0	0	515	512	511	31	0	
6	0	0	0	0	0	513	512	511	31	0	
7	0	0	0	0	0	515	510	511	32	0	
8	0	0	0	0	0	514	510	510	32	0	
9	0	0	0	0	0	514	508	510	32	0	
10	0	0	0	0	2	513	509	511	32	0	
11	0	0	0	0	0	513	509	510	31	0	
12	0	0	0	0	0	516	508	509	31	0	
13	0	0	0	0	0	513	510	511	31	0	
14	0	0	0	0	0	514	511	513	32	0	
15	0	0	0	0	0	512	510	515	32	0	
0	0	0	0	0	0	511	513	514	31	0	
1	0	0	0	0	0	514	511	512	32	0	
2	0	0	0	0	2	514	507	513	31	0	
3	0	0	0	0	0	515	511	513	32	0	
4	0	0	0	0	0	518	510	512	31	0	
5	0	0	0	0	0	515	510	512	31	0	
6	0	0	0	0	0	514	508	510	31	0	
7	0	0	0	0	0	515	510	509	31	0	
8	0	0	0	0	0	513	507	507	31	0	
9	0	0	0	0	0	514	508	509	31	0	
10	0	0	0	0	1	513	507	511	31	0	
11	0	0	0	0	0	514	510	512	32	0	
12	0	0	0	0	0	515	509	512	32	0	
13	0	0	0	0	0	514	510	512	31	0	
14	0	0	0	0	0	513	511	513	32	0	
15	0	0	0	0	0	511	513	513	32	0	
0	0	0	0	0	0	513	511	514	32	0	
1	0	0	0	0	0	514	510	514	32	0	
2	0	0	0	0	1	514	510	511	32	0	
3	0	0	0	0	0	515	511	508	31	0	
4	0	0	0	0	0	513	510	508	31	0	
5	0	0	0	0	0	515	509	508	31	0	
6	0	0	0	0	0	516	507	507	31	0	
7	0	0	0	0	0	514	507	511	32	0	
8	0	0	0	0	0	516	507	512	32	0	
9	0	0	0	0	0	513	507	513	32	0	
10	0	0	0	0	1	514	509	512	32	0	
11	0	0	0	0	0	515	507	510	32	0	
12	0	0	0	0	0	513	509	510	32	0	
13	0	0	0	0	0	512	509	512	32	0	
14	0	0	0	0	0	511	510	510	31	0	
15	0	0	0	0	0	514	512	511	31	0	
0	0	0	0	0	0	513	512	508	31	0	
1	0	0	0	0	0	515	512	511	32	0	
2	0	0	0	0	2	512	508	511	32	0	
3	0	0	0	0	0	512	508	510	32	0	
4	0	0	0	0	0	515	509	512	32	0	
5	0	0	0	0	0	515	509	513	32	0	
6	0	0	0	0	0	516	507	512	32	0	
7	0	0	0	0	0	512	508	512	32	0	
8	0	0	0	0	0	512	510	512	31	0	
9	0	0	0	0	0	513	507	511	31	0	
10	0	0	0	0	2	512	511	512	31	0	
11	0	0	0	0	0	512	512	510	31	0	
12	0	0	0	0	0	515	513	509	31	0	
13	0	0	0	0	0	515	510	511	31	0	
14	0	0	0	0	0	513	510	512	32	0	
15	0	0	0	0	0	515	508	512	32	0	
0	0	0	0	0	0	514	509	510	32	0	
1	0	0	0	0	0	516	509	510	32	0	
2	0	0	0	0	2	516	508	512	32	0	
3	0	0	0	0	0	516	511	512	31	0	
4	0	0	0	0	0	514	510	512	32	0	
5	0	0	0	0	0	513	510	513	32	0	
6	0	0	0	0	0	512	510	510	31	0	
7	0	0	0	0	0	514	511	510	32	0	
8	0	0	0	0	0	517	510	513	31	0	
9	0	0	0	0	0	518	511	512	32	0	
10	0	0	0	0	2	517	510	510	31	0	
11	0	0	0	0	0	516	508	508	31	0	
12	0	0	0	0	0	515	509	507	31	0	
13	0	0	0	0	0	514	508	512	32	0	
14	0	0	0	0	0	514	509	510	32	0	
15	0	0	0	0	0	511	508	512	32	0	
0	0	0	0	0	0	513	509	512	32	0	
1	0	0	0	0	0	513	509	514	32	0	
2	0	0	0	0	2	512	511	513	31	0	
3	0	0	0	0	0	510	510	509	31	0	
4	0	0	0	0	0	514	509	508	31	0	
5	0	0	0	0	0	513	506	508	31	0	
6	0	0	0	0	0	512	508	508	32	0	
7	0	0	0	0	0	512	508	514	32	0	
8	0	0	0	0	0	515	506	509	32	0	
9	0	0	0	0	0	513	507	510	31	0	
10	0	0	0	0	2	512	510	511	32	0	
11	0	0	0	0	0	513	509	512	32	0	
12	0	0	0	0	0	513	507	512	32	0	
13	0	0	0	0	0	514	510	512	31	0	
14	0	0	0	0	0	513	511	512	32	0	
15	0	0	0	0	0	513	511	512	31	0	
0	0	0	0	0	0	517	511	513	32	0	
1	0	0	0	0	0	518	512	510	32	0	
2	0	0	0	0	2	515	512	510	32	0	
3	0	0	0	0	0	515	510	510	31	0	
4	0	0	0	0	0	513	511	511	31	0	
5	0	0	0	0	0	513	509	512	32	0	
6	0	0	0	0	0	512	509	512	31	0	
7	0	0	0	0	0	511	509	512	31	0	
8	0	0	0	0	0	513	510	509	31	0	
9	0	0	0	0	0	514	512	511	31	0	
10	0	0	0	0	2	513	511	510	31	0	
11	0	0	0	0	0	513	511	510	32	0	
12	0	0	0	0	0	513	507	511	32	0	
13	0	0	0	0	0	514	509	512	32	0	
14	0	0	0	0	0	515	509	513	32	0	
15	0	0	0	0	0	516	508	514	32	0	
0	0	0	0	0	0	516	509	512	31	0	
1	0	0	0	0	0	515	509	508	32	0	
2	0	0	0	0	2	514	508	510	32	0	
3	0	0	0	0	0	513	510	511	31	0	
4	0	0	0	0	0	515	511	509	31	0	
5	0	0	0	0	0	515	511	509	31	0	
6	0	0	0	0	0	515	510	511	32	0	
7	0	0	0	0	0	512	511	514	32	0	
8	0	0	0	0	0	512	510	511	31	0	
9	0	0	0	0	0	513	511	510	32	0	
10	0	0	0	0	2	512	510	511	31	0	
11	0	0	0	0	0	512	508	511	31	0	
12	0	0	0	0	0	515	511	512	31	0	
13	0	0	0	0	0	515	511	513	32	0	
14	0	0	0	0	0	515	509	514	31	0	
15	0	0	0	0	0	515	509	512	32	0	
0	0	0	0	0	0	514	509	510	32	0	
1	0	0	0	0	0	511	509	507	32	0	
2	0	0	0	0	2	511	508	509	31	0	
3	0	0	0	0	0	511	507	511	31	0	
4	0	0	0	0	0	511	510	512	31	0	
5	0	0	0	0	0	511	510	512	32	0	
6	0	0	0	0	0	513	511	510	31	0	
7	0	0	0	0	0	512	512	511	32	0	
8	0	0	0	0	0	515	511	513	32	0	
9	0	0	0	0	0	516	511	512	31	0	
10	0	0	0	0	1	518	511	510	32	0	
11	0	0	0	0	0	516	509	514	32	0	
12	0	0	0	0	0	515	510	512	32	0	
13	0	0	0	0	0	516	511	511	31	0	
14	0	0	0	0	0	516	510	511	31	0	
15	0	0	0	0	0	517	512	513	32	0	
0	0	0	0	0	0	513	511	513	31	0	
1	0	0	0	0	0	514	510	512	32	0	
2	0	0	0	0	1	512	508	511	32	0	
3	0	0	0	0	0	512	508	511	32	0	
4	0	0	0	0	0	514	511	512	32	0	
5	0	0	0	0	0	515	507	513	32	0	
6	0	0	0	0	0	512	508	510	32	0	
7	0	0	0	0	0	515	509	511	32	0	
8	0	0	0	0	0	513	511	510	32	0	
9	0	0	0	0	0	515	514	511	32	0	
10	0	0	0	0	2	515	511	509	32	0	
11	0	0	0	0	0	514	511	509	32	0	
12	0	0	0	0	0	515	510	510	31	0	
13	0	0	0	0	0	514	509	507	31	0	
14	0	0	0	0	0	517	508	508	32	0	
15	0	0	0	0	0	515	510	508	32	0	
0	0	0	0	0	0	515	510	509	32	0	
1	0	0	0	0	0	513	511	509	32	0	
2	0	0	0	0	2	510	510	511	32	0	
3	0	0	0	0	0	512	510	509	31	0	
4	0	0	0	0	0	517	510	508	31	0	
5	0	0	0	0	0	519	507	509	31	0	
6	0	0	0	0	0	516	508	511	31	0	
7	0	0	0	0	0	512	508	513	31	0	
8	0	0	0	0	0	513	507	509	31	0	
9	0	0	0	0	0	516	510	510	31	0	
10	0	0	0	0	2	512	510	508	31	0	
11	0	0	0	0	0	510	506	510	31	0	
12	0	0	0	0	0	510	508	512	31	0	
13	0	0	0	0	0	511	508	508	31	0	
14	0	0	0	0	0	512	510	509	31	0	
15	0	0	0	0	0	510	513	512	32	0	
0	0	0	0	0	0	510	512	516	32	0	
1	0	0	0	0	0	511	509	518	32	0	
2	0	0	0	0	2	513	508	516	32	0	
3	0	0	0	0	0	514	508	510	31	0	
4	0	0	0	0	0	516	506	510	32	0	
5	0	0	0	0	0	515	506	515	32	0	
6	0	0	0	0	0	513	513	516	32	0	
7	0	0	0	0	0	514	514	515	32	0	
8	0	0	0	0	0	511	512	511	31	0	
9	0	0	0	0	0	510	512	511	32	0	
10	0	0	0	0	2	512	512	514	32	0	
11	0	0	0	0	0	512	510	512	32	0	
12	0	0	0	0	0	515	510	516	32	0	
13	0	0	0	0	0	515	509	515	32	0	
14	0	0	0	0	0	516	506	512	32	0	
15	0	0	0	0	0	519	504	511	31	0	
0	0	0	0	0	0	515	505	509	31	0	
1	0	0	0	0	0	514	505	508	31	0	
2	0	0	0	0	2	513	507	511	32	0	
3	0	0	0	0	0	515	510	510	32	0	
4	0	0	0	0	0	517	511	509	32	0	
5	0	0	0	0	0	517	514	511	32	0	
6	0	0	0	0	0	515	513	513	32	0	
7	0	0	0	0	0	519	512	511	32	0	
8	0	0	0	0	0	518	511	512	32	0	
9	0	0	0	0	0	517	513	509	31	0	
10	0	0	0	0	2	514	509	504	31	0	
11	0	0	0	0	0	514	507	506	31	0	
12	0	0	0	0	0	507	505	510	31	0	
13	0	0	0	0	0	509	506	516	31	0	
14	0	0	0	0	0	510	507	513	31	0	
15	0	0	0	0	0	513	510	512	31	0	
0	0	0	0	0	0	516	517	513	32	0	
1	0	0	0	0	0	519	518	514	32	0	
2	0	0	0	0	2	515	514	511	32	0	
3	0	0	0	0	0	515	513	508	32	0	
4	0	0	0	0	0	508	511	506	31	0	
5	0	0	0	0	0	502	504	510	31	0	
6	0	0	0	0	0	508	503	511	31	0	
7	0	0	0	0	0	515	506	511	32	0	
8	0	0	0	0	0	515	507	510	32	0	
9	0	0	0	0	0	522	508	511	32	0	
10	0	0	0	0	2	524	504	512	32	0	
11	0	0	0	0	0	517	505	516	32	0	
12	0	0	0	0	0	510	510	512	32	0	
13	0	0	0	0	0	508	510	508	31	0	
14	0	0	0	0	0	505	514	506	31	0	
15	0	0	0	0	0	509	514	510	31	0	
0	0	0	0	0	0	511	519	516	32	0	
1	0	0	0	0	0	511	522	516	32	0	
2	0	0	0	0	2	515	513	514	32	0	
3	0	0	0	0	0	516	512	509	31	0	
4	0	0	0	0	0	518	505	503	31	0	
5	0	0	0	0	0	516	498	504	31	0	
6	0	0	0	0	0	515	496	509	31	0	
7	0	0	0	0	0	512	501	511	32	0	
8	0	0	0	0	0	515	504	515	32	0	
9	0	0	0	0	0	519	507	515	32	0	
10	0	0	0	0	2	518	512	516	32	0	
11	0	0	0	0	0	515	511	512	32	0	
12	0	0	0	0	0	515	513	509	31	0	
13	0	0	0	0	0	510	511	508	31	0	
14	0	0	0	0	0	511	512	507	31	0	
15	0	0	0	0	0	518	511	508	31	0	
0	0	0	0	0	0	519	512	512	31	0	
1	0	0	0	0	0	516	513	514	32	0	
2	0	0	0	0	1	519	515	511	32	0	
3	0	0	0	0	0	516	513	511	32	0	
4	0	0	0	0	0	511	516	509	31	0	
5	0	0	0	0	0	508	514	509	31	0	
6	0	0	0	0	0	505	512	513	31	0	
7	0	0	0	0	0	508	505	511	31	0	
8	0	0	0	0	0	508	503	512	32	0	
9	0	0	0	0	0	510	505	509	32	0	
10	0	0	0	0	1	512	509	511	32	0	
11	0	0	0	0	0	513	511	511	32	0	
12	0	0	0	0	0	512	510	512	31	0	
13	0	0	0	0	0	515	509	511	31	0	
14	0	0	0	0	0	517	504	515	31	0	
15	0	0	0	0	0	516	505	519	31	0	
0	0	0	0	0	0	519	508	515	32	0	
1	0	0	0	0	0	521	512	511	32	0	
2	0	0	0	0	1	523	515	509	32	0	
3	0	0	0	0	0	521	514	508	32	0	
4	0	0	0	0	0	519	513	505	32	0	
5	0	0	0	0	0	522	506	508	32	0	
6	0	0	0	0	0	519	506	507	32	0	
7	0	0	0	0	0	512	508	507	32	0	
8	0	0	0	0	0	507	510	509	31	0	
9	0	0	0	0	0	499	512	510	31	0	
10	0	0	0	0	2	499	512	515	31	0	
11	0	0	0	0	0	505	513	519	31	0	
12	0	0	0	0	0	513	509	517	32	0	
13	0	0	0	0	0	519	505	510	32	0	
14	0	0	0	0	0	519	503	507	32	0	
15	0	0	0	0	0	517	505	508	31	0	
0	0	0	0	0	0	512	508	512	31	0	
1	0	0	0	0	0	510	506	515	32	0	
2	0	0	0	0	2	509	506	516	32	0	
3	0	0	0	0	0	512	508	516	32	0	
4	0	0	0	0	0	514	510	515	32	0	
5	0	0	0	0	0	516	512	512	32	0	
6	0	0	0	0	0	518	510	507	31	0	
7	0	0	0	0	0	519	514	503	31	0	
8	0	0	0	0	0	515	514	517	31	0	
9	0	0	0	0	0	514	512	519	32	0	
10	0	0	0	0	2	513	511	520	32	0	
11	0	0	0	0	0	509	509	514	32	0	
12	0	0	0	0	0	508	511	509	32	0	
13	0	0	0	0	0	512	511	502	32	0	
14	0	0	0	0	0	515	506	499	32	0	
15	0	0	0	0	0	519	508	496	31	0	
0	0	0	0	0	0	517	511	499	31	0	
1	0	0	0	0	0	517	513	505	31	0	
2	0	0	0	0	2	516	509	518	31	0	
3	0	0	0	0	0	520	510	522	31	0	
4	0	0	0	0	0	523	513	524	31	0	
5	0	0	0	0	0	514	513	526	32	0	
6	0	0	0	0	0	511	511	519	32	0	
7	0	0	0	0	0	509	509	519	32	0	
8	0	0	0	0	0	504	510	528	32	0	
9	0	0	0	0	0	504	507	532	32	0	
10	0	0	0	0	2	507	508	526	32	0	
11	0	0	0	0	0	511	510	512	32	0	
12	0	0	0	0	0	514	509	496	31	0	
13	0	0	0	0	0	519	508	481	31	0	
14	0	0	0	0	0	521	506	483	31	0	
15	0	0	0	0	0	520	508	487	31	0	
0	0	0	0	0	0	519	511	486	31	0	
1	0	0	0	0	0	518	512	494	31	0	
2	0	0	0	0	2	516	511	499	32	0	
3	0	0	0	0	0	513	510	508	32	0	
4	0	0	0	0	0	513	509	512	32	0	
5	0	0	0	0	0	515	506	518	32	0	
6	0	0	0	0	0	516	507	519	32	0	
7	0	0	0	0	0	512	508	522	31	0	
8	0	0	0	0	0	510	511	522	30	0	
9	0	0	0	0	0	509	512	522	31	0	
10	0	0	0	0	2	512	513	521	31	0	
11	0	0	0	0	0	515	507	520	31	0	
12	0	0	0	0	0	515	507	518	32	0	
13	0	0	0	0	0	517	508	513	32	0	
14	0	0	0	0	0	513	508	512	32	0	
15	0	0	0	0	0	513	508	505	32	0	
0	0	0	0	0	0	512	513	502	32	0	
1	0	0	0	0	0	512	513	505	32	0	
2	0	0	0	0	2	513	514	513	32	0	
3	0	0	0	0	0	512	510	512	31	0	
4	0	0	0	0	0	514	507	502	31	0	
5	0	0	0	0	0	512	506	503	30	0	
6	0	0	0	0	0	513	509	513	31	0	
7	0	0	0	0	0	512	511	523	31	0	
8	0	0	0	0	0	515	512	536	32	0	
9	0	0	0	0	0	513	509	526	32	0	
10	0	0	0	0	2	511	508	512	32	0	
11	0	0	0	0	0	515	509	510	32	0	
12	0	0	0	0	0	514	510	515	32	0	
13	0	0	0	0	0	514	510	510	32	0	
14	0	0	0	0	0	518	510	499	31	0	
15	0	0	0	0	0	520	510	493	31	0	
0	0	0	0	0	0	521	507	494	31	0	
1	0	0	0	0	0	519	509	499	31	0	
2	0	0	0	0	2	516	509	502	32	0	
3	0	0	0	0	0	519	511	505	32	0	
4	0	0	0	0	0	515	510	512	32	0	
5	0	0	0	0	0	515	508	517	32	0	
6	0	0	0	0	0	512	507	521	31	0	
7	0	0	0	0	0	508	509	521	31	0	
8	0	0	0	0	0	508	510	521	32	0	
9	0	0	0	0	0	507	510	513	32	0	
10	0	0	0	0	2	514	512	500	31	0	
11	0	0	0	0	0	515	515	498	31	0	
12	0	0	0	0	0	511	515	504	31	0	
13	0	0	0	0	0	512	513	519	32	0	
14	0	0	0	0	0	511	510	533	32	0	
15	0	0	0	0	0	512	506	537	32	0	
0	0	0	0	0	0	512	504	535	32	0	
1	0	0	0	0	0	514	504	522	32	0	
2	0	0	0	0	1	518	508	511	31	0	
3	0	0	0	0	0	515	509	495	31	0	
4	0	0	0	0	0	516	508	481	31	0	
5	0	0	0	0	0	514	510	485	31	0	
6	0	0	0	0	0	518	512	497	31	0	
7	0	0	0	0	0	515	514	502	31	0	
8	0	0	0	0	0	518	515	507	31	0	
9	0	0	0	0	0	519	509	507	31	0	
10	0	0	0	0	1	516	505	517	32	0	
11	0	0	0	0	0	509	506	527	32	0	
12	0	0	0	0	0	504	507	527	32	0	
13	0	0	0	0	0	503	509	512	32	0	
14	0	0	0	0	0	507	507	500	32	0	
15	0	0	0	0	0	511	509	502	31	0	
0	0	0	0	0	0	510	509	510	32	0	
1	0	0	0	0	0	515	509	514	32	0	
2	0	0	0	0	1	517	509	517	31	0	
3	0	0	0	0	0	518	509	517	31	0	
4	0	0	0	0	0	516	511	523	32	0	
5	0	0	0	0	0	516	510	526	32	0	
6	0	0	0	0	0	516	511	522	32	0	
7	0	0	0	0	0	519	515	510	32	0	
8	0	0	0	0	0	518	512	512	32	0	
9	0	0	0	0	0	512	509	509	32	0	
10	0	0	0	0	2	517	506	494	31	0	
11	0	0	0	0	0	522	509	487	30	0	
12	0	0	0	0	0	518	512	508	31	0	
13	0	0	0	0	0	511	514	522	31	0	
14	0	0	0	0	0	507	512	549	31	0	
15	0	0	0	0	0	505	511	541	32	0	
0	0	0	0	0	0	511	513	512	32	0	
1	0	0	0	0	0	518	510	489	32	0	
2	0	0	0	0	2	519	511	482	32	0	
3	0	0	0	0	0	518	508	482	31	0	
4	0	0	0	0	0	512	505	493	31	0	
5	0	0	0	0	0	512	509	513	32	0	
6	0	0	0	0	0	512	508	527	32	0	
7	0	0	0	0	0	514	511	520	31	0	
8	0	0	0	0	0	517	508	510	32	0	
9	0	0	0	0	0	519	509	496	31	0	
10	0	0	0	0	2	518	508	494	31	0	
11	0	0	0	0	0	514	508	498	31	0	
12	0	0	0	0	0	511	509	503	31	0	
13	0	0	0	0	0	511	508	518	32	0	
14	0	0	0	0	0	507	509	537	33	0	
15	0	0	0	0	0	510	509	536	33	0	
0	0	0	0	0	0	511	509	532	33	0	
1	0	0	0	0	0	510	511	527	32	0	
2	0	0	0	0	2	513	513	521	31	0	
3	0	0	0	0	0	516	512	490	30	0	
4	0	0	0	0	0	515	511	473	30	0	
5	0	0	0	0	0	518	509	469	30	0	
6	0	0	0	0	0	516	509	487	30	0	
7	0	0	0	0	0	514	509	505	31	0	
8	0	0	0	0	0	515	509	517	32	0	
9	0	0	0	0	0	517	511	521	32	0	
10	0	0	0	0	2	515	513	523	32	0	
11	0	0	0	0	0	515	511	525	32	0	
12	0	0	0	0	0	511	508	535	33	0	
13	0	0	0	0	0	511	509	525	32	0	
14	0	0	0	0	0	513	511	516	32	0	
15	0	0	0	0	0	514	515	518	32	0	
0	0	0	0	0	0	513	513	512	31	0	
1	0	0	0	0	0	518	507	511	32	0	
2	0	0	0	0	2	516	505	510	31	0	
3	0	0	0	0	0	513	507	508	31	0	
4	0	0	0	0	0	514	509	513	31	0	
5	0	0	0	0	0	514	511	518	32	0	
6	0	0	0	0	0	515	509	517	32	0	
7	0	0	0	0	0	515	509	510	32	0	
8	0	0	0	0	0	516	511	506	31	0	
9	0	0	0	0	0	515	512	512	32	0	
10	0	0	0	0	2	513	508	509	32	0	
11	0	0	0	0	0	514	511	509	31	0	
12	0	0	0	0	0	514	511	506	31	0	
13	0	0	0	0	0	513	511	509	32	0	
14	0	0	0	0	0	513	510	515	32	0	
15	0	0	0	0	0	512	509	516	32	0	
0	0	0	0	0	0	511	510	511	32	0	
1	0	0	0	0	0	512	508	518	32	0	
2	0	0	0	0	2	512	509	522	31	0	
3	0	0	0	0	0	519	511	511	31	0	
4	0	0	0	0	0	513	512	515	31	0	
5	0	0	0	0	0	515	510	518	31	0	
6	0	0	0	0	0	514	509	511	32	0	
7	0	0	0	0	0	513	508	502	32	0	
8	0	0	0	0	0	519	510	488	32	0	
9	0	0	0	0	0	517	508	494	31	0	
10	0	0	0	0	2	513	510	507	31	0	
11	0	0	0	0	0	512	513	507	32	0	
12	0	0	0	0	0	515	510	511	32	0	
13	0	0	0	0	0	516	510	515	32	0	
14	0	0	0	0	0	515	509	517	32	0	
15	0	0	0	0	0	513	507	526	32	0	
0	0	0	0	0	0	512	508	525	31	0	
1	0	0	0	0	0	512	511	523	31	0	
2	0	0	0	0	2	512	511	516	31	0	
3	0	0	0	0	0	515	507	511	32	0	
4	0	0	0	0	0	511	507	508	32	0	
5	0	0	0	0	0	512	506	508	31	0	
6	0	0	0	0	0	512	508	497	31	0	
7	0	0	0	0	0	510	512	481	31	0	
8	0	0	0	0	0	518	511	476	31	0	
9	0	0	0	0	0	517	513	493	31	0	
10	0	0	0	0	2	510	508	516	32	0	
11	0	0	0	0	0	513	510	525	32	0	
12	0	0	0	0	0	511	513	528	32	0	
13	0	0	0	0	0	508	510	523	32	0	
14	0	0	0	0	0	517	509	521	32	0	
15	0	0	0	0	0	518	508	513	31	0	
0	0	0	0	0	0	515	504	507	31	0	
1	0	0	0	0	0	512	505	508	31	0	
2	0	0	0	0	1	516	506	502	31	0	
3	0	0	0	0	0	514	505	511	32	0	
4	0	0	0	0	0	513	504	519	32	0	
5	0	0	0	0	0	516	506	519	32	0	
6	0	0	0	0	0	515	508	524	32	0	
7	0	0	0	0	0	518	512	516	31	0	
8	0	0	0	0	0	516	515	513	31	0	
9	0	0	0	0	0	510	513	508	31	0	
10	0	0	0	0	1	516	512	504	31	0	
11	0	0	0	0	0	514	510	505	31	0	
12	0	0	0	0	0	513	512	519	31	0	
13	0	0	0	0	0	513	513	530	32	0	
14	0	0	0	0	0	510	509	526	32	0	
15	0	0	0	0	0	511	508	510	32	0	
0	0	0	0	0	0	517	509	503	31	0	
1	0	0	0	0	0	519	511	500	32	0	
2	0	0	0	0	2	515	512	487	31	0	
3	0	0	0	0	0	510	511	482	31	0	
4	0	0	0	0	0	510	510	497	32	0	
5	0	0	0	0	0	508	508	519	32	0	
6	0	0	0	0	0	511	510	526	32	0	
7	0	0	0	0	0	515	508	514	32	0	
8	0	0	0	0	0	511	507	512	31	0	
9	0	0	0	0	0	511	506	513	32	0	
10	0	0	0	0	2	512	505	513	32	0	
11	0	0	0	0	0	513	508	517	31	0	
12	0	0	0	0	0	513	510	513	31	0	
13	0	0	0	0	0	514	511	520	31	0	
14	0	0	0	0	0	515	510	524	32	0	
15	0	0	0	0	0	513	508	523	32	0	
0	0	0	0	0	0	513	510	510	32	0	
1	0	0	0	0	0	514	510	503	32	0	
2	0	0	0	0	2	515	508	509	32	0	
3	0	0	0	0	0	518	511	506	32	0	
4	0	0	0	0	0	514	511	519	32	0	
5	0	0	0	0	0	514	511	512	31	0	
6	0	0	0	0	0	518	511	502	31	0	
7	0	0	0	0	0	513	508	503	31	0	
8	0	0	0	0	0	515	509	500	31	0	
9	0	0	0	0	0	515	511	502	31	0	
10	0	0	0	0	2	515	513	503	31	0	
11	0	0	0	0	0	513	511	510	31	0	
12	0	0	0	0	0	515	511	512	32	0	
13	0	0	0	0	0	517	511	515	32	0	
14	0	0	0	0	0	517	512	515	31	0	
15	0	0	0	0	0	511	504	514	32	0	
0	0	0	0	0	0	512	502	513	32	0	
1	0	0	0	0	0	509	508	521	31	0	
2	0	0	0	0	2	510	511	532	32	0	
3	0	0	0	0	0	515	509	529	32	0	
4	0	0	0	0	0	514	511	515	32	0	
5	0	0	0	0	0	513	508	500	32	0	
6	0	0	0	0	0	515	508	487	32	0	
7	0	0	0	0	0	514	511	491	31	0	
8	0	0	0	0	0	517	511	499	30	0	
9	0	0	0	0	0	516	513	504	30	0	
10	0	0	0	0	2	517	510	500	31	0	
11	0	0	0	0	0	513	508	500	31	0	
12	0	0	0	0	0	512	510	507	31	0	
13	0	0	0	0	0	513	508	511	32	0	
14	0	0	0	0	0	515	512	515	32	0	
15	0	0	0	0	0	514	511	521	32	0	
0	0	0	0	0	0	515	511	530	32	0	
1	0	0	0	0	0	513	510	537	32	0	
2	0	0	0	0	2	513	511	533	32	0	
3	0	0	0	0	0	512	510	511	32	0	
4	0	0	0	0	0	516	510	492	31	0	
5	0	0	0	0	0	513	505	510	32	0	
6	0	0	0	0	0	512	507	519	32	0	
7	0	0	0	0	0	513	506	535	32	0	
8	0	0	0	0	0	515	508	529	32	0	
9	0	0	0	0	0	515	509	509	32	0	
10	0	0	0	0	3	515	511	498	31	0	
11	0	0	0	0	0	517	508	489	31	0	
12	0	0	0	0	0	518	511	484	30	0	
13	0	0	0	0	0	516	510	489	30	0	
14	0	0	0	0	0	514	508	497	31	0	
15	0	0	0	0	0	509	510	508	31	0	
0	0	0	0	0	0	511	509	516	32	0	
1	0	0	0	0	0	510	512	527	32	0	
2	0	0	0	0	2	511	511	534	32	0	
3	0	0	0	0	0	512	508	527	32	0	
4	0	0	0	0	0	512	509	519	32	0	
5	0	0	0	0	0	515	511	510	32	0	
6	0	0	0	0	0	518	510	511	32	0	
7	0	0	0	0	0	514	507	515	32	0	
8	0	0	0	0	0	514	503	515	33	0	
9	0	0	0	0	0	514	506	513	32	0	
10	0	0	0	0	2	513	510	510	31	0	
11	0	0	0	0	0	512	515	503	30	0	
12	0	0	0	0	0	515	513	495	29	0	
13	0	0	0	0	0	514	512	491	30	0	
14	0	0	0	0	0	515	512	494	30	0	
15	0	0	0	0	0	515	508	501	31	0	
0	0	0	0	0	0	516	508	505	32	0	
1	0	0	0	0	0	518	510	504	32	0	
2	0	0	0	0	2	513	510	504	31	0	
3	0	0	0	0	0	516	512	497	31	0	
4	0	0	0	0	0	514	509	515	32	0	
5	0	0	0	0	0	507	511	515	32	0	
6	0	0	0	0	0	511	512	515	32	0	
7	0	0	0	0	0	513	510	519	32	0	
8	0	0	0	0	0	513	507	519	32	0	
9	0	0	0	0	0	512	505	521	32	0	
10	0	0	0	0	1	514	508	521	32	0	
11	0	0	0	0	0	513	508	522	32	0	
12	0	0	0	0	0	516	509	517	32	0	
13	0	0	0	0	0	515	509	521	32	0	
14	0	0	0	0	0	517	510	515	32	0	
15	0	0	0	0	0	515	511	511	32	0	
0	0	0	0	0	0	514	511	511	32	0	
1	0	0	0	0	0	513	510	518	32	0	
2	0	0	0	0	1	511	511	518	32	0	
3	0	0	0	0	0	512	513	513	31	0	
4	0	0	0	0	0	514	513	504	31	0	
5	0	0	0	0	0	515	511	507	31	0	
6	0	0	0	0	0	516	509	515	31	0	
7	0	0	0	0	0	512	508	520	32	0	
8	0	0	0	0	0	516	508	514	32	0	
9	0	0	0	0	0	512	504	512	32	0	
10	0	0	0	0	1	515	507	506	32	0	
11	0	0	0	0	0	516	504	510	32	0	
12	0	0	0	0	0	515	507	507	31	0	
13	0	0	0	0	0	515	507	496	31	0	
14	0	0	0	0	0	515	508	499	31	0	
15	0	0	0	0	0	513	509	506	31	0	
0	0	0	0	0	0	510	511	513	32	0	
1	0	0	0	0	0	509	512	519	31	0	
2	0	0	0	0	2	511	512	515	31	0	
3	0	0	0	0	0	511	509	517	31	0	
4	0	0	0	0	0	512	510	512	31	0	
5	0	0	0	0	0	516	512	510	32	0	
6	0	0	0	0	0	518	511	518	32	0	
7	0	0	0	0	0	515	512	519	32	0	
8	0	0	0	0	0	515	511	515	32	0	
9	0	0	0	0	0	513	513	509	31	0	
10	0	0	0	0	2	516	511	505	31	0	
11	0	0	0	0	0	515	508	506	31	0	
12	0	0	0	0	0	513	506	512	32	0	
13	0	0	0	0	0	513	506	512	31	0	
14	0	0	0	0	0	511	504	512	32	0	
15	0	0	0	0	0	515	508	511	32	0	
0	0	0	0	0	0	516	510	511	32	0	
1	0	0	0	0	0	516	512	510	32	0	
2	0	0	0	0	2	511	511	515	31	0	
3	0	0	0	0	0	512	508	513	31	0	
4	0	0	0	0	0	513	512	524	32	0	
5	0	0	0	0	0	515	512	522	31	0	
6	0	0	0	0	0	516	512	514	31	0	
7	0	0	0	0	0	515	512	508	32	0	
8	0	0	0	0	0	515	512	500	32	0	
9	0	0	0	0	0	515	511	499	32	0	
10	0	0	0	0	2	512	512	500	31	0	
11	0	0	0	0	0	513	513	500	31	0	
12	0	0	0	0	0	511	510	505	31	0	
13	0	0	0	0	0	511	508	508	31	0	
14	0	0	0	0	0	514	505	512	31	0	
15	0	0	0	0	0	515	506	514	32	0	
0	0	0	0	0	0	517	505	512	32	0	
1	0	0	0	0	0	512	506	516	32	0	
2	0	0	0	0	2	516	508	510	32	0	
3	0	0	0	0	0	516	510	513	32	0	
4	0	0	0	0	0	512	511	516	32	0	
5	0	0	0	0	0	512	510	517	32	0	
6	0	0	0	0	0	514	510	514	31	0	
7	0	0	0	0	0	515	511	515	31	0	
8	0	0	0	0	0	514	512	520	31	0	
9	0	0	0	0	0	513	510	519	32	0	
10	0	0	0	0	2	516	513	508	32	0	
11	0	0	0	0	0	515	511	507	32	0	
12	0	0	0	0	0	515	511	504	32	0	
13	0	0	0	0	0	515	510	515	32	0	
14	0	0	0	0	0	515	509	524	32	0	
15	0	0	0	0	0	516	506	521	32	0	
0	0	0	0	0	0	512	510	513	32	0	
1	0	0	0	0	0	516	512	504	32	0	
2	0	0	0	0	2	512	510	501	32	0	
3	0	0	0	0	0	511	511	499	32	0	
4	0	0	0	0	0	512	512	499	31	0	
5	0	0	0	0	0	515	512	499	30	0	
6	0	0	0	0	0	514	513	499	30	0	
7	0	0	0	0	0	510	509	507	30	0	
8	0	0	0	0	0	510	507	515	31	0	
9	0	0	0	0	0	511	507	521	31	0	
10	0	0	0	0	2	511	508	521	32	0	
11	0	0	0	0	0	514	507	515	32	0	
12	0	0	0	0	0	515	506	513	32	0	
13	0	0	0	0	0	515	508	510	32	0	
14	0	0	0	0	0	517	511	506	32	0	
15	0	0	0	0	0	515	512	505	31	0	
0	0	0	0	0	0	516	511	508	32	0	
1	0	0	0	0	0	517	513	516	32	0	
2	0	0	0	0	2	512	511	518	32	0	
3	0	0	0	0	0	510	508	520	32	0	
4	0	0	0	0	0	514	509	519	32	0	
5	0	0	0	0	0	515	508	520	32	0	
6	0	0	0	0	0	513	509	528	31	0	
7	0	0	0	0	0	510	512	524	32	0	
8	0	0	0	0	0	513	512	509	32	0	
9	0	0	0	0	0	514	513	503	32	0	
10	0	0	0	0	2	516	512	504	31	0	
11	0	0	0	0	0	515	511	509	32	0	
12	0	0	0	0	0	512	510	506	31	0	
13	0	0	0	0	0	518	508	482	31	0	
14	0	0	0	0	0	519	514	481	30	0	
15	0	0	0	0	0	517	511	499	31	0	
0	0	0	0	0	0	515	509	518	31	0	
1	0	0	0	0	0	516	509	521	31	0	
2	0	0	0	0	2	515	509	518	32	0	
3	0	0	0	0	0	515	508	515	32	0	
4	0	0	0	0	0	513	510	513	32	0	
5	0	0	0	0	0	512	509	515	32	0	
6	0	0	0	0	0	512	509	514	32	0	
7	0	0	0	0	0	512	510	513	32	0	
8	0	0	0	0	0	513	507	512	31	0	
9	0	0	0	0	0	511	509	519	32	0	
10	0	0	0	0	1	512	508	526	32	0	
11	0	0	0	0	0	512	507	516	32	0	
12	0	0	0	0	0	513	507	500	32	0	
13	0	0	0	0	0	515	509	496	31	0	
14	0	0	0	0	0	516	507	504	31	0	
15	0	0	0	0	0	515	507	513	32	0	
0	0	0	0	0	0	513	508	519	31	0	
1	0	0	0	0	0	514	510	518	31	0	
2	0	0	0	0	1	512	509	519	32	0	
3	0	0	0	0	0	514	507	515	32	0	
4	0	0	0	0	0	515	511	511	32	0	
5	0	0	0	0	0	512	510	511	32	0	
6	0	0	0	0	0	509	509	506	32	0	
7	0	0	0	0	0	513	511	502	32	0	
8	0	0	0	0	0	510	511	509	31	0	
9	0	0	0	0	0	513	512	510	31	0	
10	0	0	0	0	1	511	512	511	31	0	
11	0	0	0	0	0	514	511	510	31	0	
12	0	0	0	0	0	516	507	510	31	0	
13	0	0	0	0	0	514	508	510	32	0	
14	0	0	0	0	0	515	509	511	31	0	
15	0	0	0	0	0	513	512	519	32	0	
0	0	0	0	0	0	516	510	519	32	0	
1	0	0	0	0	0	516	510	516	31	0	
2	0	0	0	0	2	513	510	516	32	0	
3	0	0	0	0	0	515	512	505	32	0	
4	0	0	0	0	0	512	511	507	31	0	
5	0	0	0	0	0	513	511	506	31	0	
6	0	0	0	0	0	513	511	509	31	0	
7	0	0	0	0	0	513	509	517	32	0	
8	0	0	0	0	0	515	507	516	32	0	
9	0	0	0	0	0	515	508	514	32	0	
10	0	0	0	0	2	515	510	511	32	0	
11	0	0	0	0	0	515	510	511	32	0	
12	0	0	0	0	0	514	510	512	32	0	
13	0	0	0	0	0	513	511	514	32	0	
14	0	0	0	0	0	512	509	511	31	0	
15	0	0	0	0	0	513	510	511	31	0	
0	0	0	0	0	0	511	507	516	32	0	
1	0	0	0	0	0	517	508	504	31	0	
2	0	0	0	0	2	517	509	504	31	0	
3	0	0	0	0	0	517	512	503	31	0	
4	0	0	0	0	0	516	510	505	31	0	
5	0	0	0	0	0	513	509	506	31	0	
6	0	0	0	0	0	513	508	514	32	0	
7	0	0	0	0	0	513	508	521	32	0	
8	0	0	0	0	0	511	507	515	32	0	
9	0	0	0	0	0	512	510	505	32	0	
10	0	0	0	0	2	513	509	508	32	0	
11	0	0	0	0	0	513	509	516	31	0	
12	0	0	0	0	0	513	510	515	31	0	
13	0	0	0	0	0	513	509	513	32	0	
14	0	0	0	0	0	512	508	527	32	0	
15	0	0	0	0	0	511	511	528	32	0	
0	0	0	0	0	0	512	509	512	33	0	
1	0	0	0	0	0	513	507	508	33	0	
2	0	0	0	0	2	512	509	499	32	0	
3	0	0	0	0	0	519	511	487	31	0	
4	0	0	0	0	0	516	513	486	30	0	
5	0	0	0	0	0	517	511	488	29	0	
6	0	0	0	0	0	514	512	511	30	0	
7	0	0	0	0	0	515	514	532	31	0	
8	0	0	0	0	0	513	510	548	32	0	
9	0	0	0	0	0	517	511	529	33	0	
10	0	0	0	0	2	516	509	504	32	0	
11	0	0	0	0	0	513	511	496	32	0	
12	0	0	0	0	0	515	511	492	31	0	
13	0	0	0	0	0	511	509	490	31	0	
14	0	0	0	0	0	514	508	476	31	0	
15	0	0	0	0	0	517	510	482	32	0	
0	0	0	0	0	0	514	512	504	31	0	
1	0	0	0	0	0	510	508	528	32	0	
2	0	0	0	0	2	513	510	534	32	0	
3	0	0	0	0	0	513	509	524	32	0	
4	0	0	0	0	0	515	509	525	32	0	
5	0	0	0	0	0	515	509	528	31	0	
6	0	0	0	0	0	514	508	529	32	0	
7	0	0	0	0	0	512	508	525	32	0	
8	0	0	0	0	0	512	508	512	32	0	
9	0	0	0	0	0	514	510	507	32	0	
10	0	0	0	0	2	511	508	506	31	0	
11	0	0	0	0	0	510	507	506	32	0	
12	0	0	0	0	0	513	509	502	32	0	
13	0	0	0	0	0	511	511	504	31	0	
14	0	0	0	0	0	514	510	509	31	0	
15	0	0	0	0	0	513	510	513	31	0	
0	0	0	0	0	0	513	510	515	31	0	
1	0	0	0	0	0	516	512	518	32	0	
2	0	0	0	0	2	516	511	517	32	0	
3	0	0	0	0	0	516	511	514	32	0	
4	0	0	0	0	0	518	507	512	32	0	
5	0	0	0	0	0	517	511	511	31	0	
6	0	0	0	0	0	515	510	510	32	0	
7	0	0	0	0	0	515	513	510	31	0	
8	0	0	0	0	0	514	511	516	32	0	
9	0	0	0	0	0	512	509	518	32	0	
10	0	0	0	0	2	511	510	516	32	0	
11	0	0	0	0	0	512	510	515	32	0	
12	0	0	0	0	0	512	509	514	32	0	
13	0	0	0	0	0	512	509	511	32	0	
14	0	0	0	0	0	512	510	507	31	0	
15	0	0	0	0	0	513	508	509	31	0	
0	0	0	0	0	0	514	509	511	31	0	
1	0	0	0	0	0	513	509	513	31	0	
2	0	0	0	0	2	515	508	512	32	0	
3	0	0	0	0	0	514	509	507	32	0	
4	0	0	0	0	0	514	508	509	32	0	
5	0	0	0	0	0	515	509	514	31	0	
6	0	0	0	0	0	515	510	519	31	0	
7	0	0	0	0	0	513	509	518	31	0	
8	0	0	0	0	0	511	508	513	31	0	
9	0	0	0	0	0	516	510	495	32	0	
10	0	0	0	0	1	518	510	503	32	0	
11	0	0	0	0	0	515	509	511	32	0	
12	0	0	0	0	0	514	510	515	32	0	
13	0	0	0	0	0	513	511	521	32	0	
14	0	0	0	0	0	510	509	532	31	0	
15	0	0	0	0	0	513	513	538	31	0	
0	0	0	0	0	0	512	510	531	32	0	
1	0	0	0	0	0	512	513	504	32	0	
2	0	0	0	0	1	516	510	476	32	0	
3	0	0	0	0	0	516	510	470	31	0	
4	0	0	0	0	0	513	510	487	31	0	
5	0	0	0	0	0	516	510	490	31	0	
6	0	0	0	0	0	517	510	494	31	0	
7	0	0	0	0	0	516	507	505	32	0	
8	0	0	0	0	0	515	508	512	31	0	
9	0	0	0	0	0	512	508	520	31	0	
10	0	0	0	0	2	513	511	516	31	0	
11	0	0	0	0	0	512	508	506	32	0	
12	0	0	0	0	0	517	509	506	32	0	
13	0	0	0	0	0	513	508	522	31	0	
14	0	0	0	0	0	511	511	526	31	0	
15	0	0	0	0	0	511	508	525	31	0	
0	0	0	0	0	0	511	508	520	32	0	
1	0	0	0	0	0	515	508	520	32	0	
2	0	0	0	0	2	515	509	513	32	0	
3	0	0	0	0	0	515	510	510	32	0	
4	0	0	0	0	0	515	510	504	31	0	
5	0	0	0	0	0	513	509	500	31	0	
6	0	0	0	0	0	511	507	508	31	0	
7	0	0	0	0	0	511	506	521	32	0	
8	0	0	0	0	0	513	512	526	32	0	
9	0	0	0	0	0	512	513	525	32	0	
10	0	0	0	0	2	513	509	520	33	0	
11	0	0	0	0	0	515	506	508	32	0	
12	0	0	0	0	0	515	510	493	31	0	
13	0	0	0	0	0	515	509	499	31	0	
14	0	0	0	0	0	517	510	503	30	0	
15	0	0	0	0	0	515	511	505	30	0	
0	0	0	0	0	0	513	512	504	30	0	
1	0	0	0	0	0	516	510	504	30	0	
2	0	0	0	0	2	516	512	504	31	0	
3	0	0	0	0	0	516	512	505	32	0	
4	0	0	0	0	0	517	509	513	32	0	
5	0	0	0	0	0	519	509	526	32	0	
6	0	0	0	0	0	517	508	542	32	0	
7	0	0	0	0	0	508	509	548	33	0	
8	0	0	0	0	0	510	510	517	32	0	
9	0	0	0	0	0	513	510	514	32	0	
10	0	0	0	0	2	515	509	510	32	0	
11	0	0	0	0	0	514	510	503	31	0	
12	0	0	0	0	0	513	510	496	31	0	
13	0	0	0	0	0	514	510	492	31	0	
14	0	0	0	0	0	510	511	488	31	0	
15	0	0	0	0	0	513	512	488	31	0	
0	0	0	0	0	0	512	510	492	31	0	
1	0	0	0	0	0	514	506	499	32	0	
2	0	0	0	0	2	513	504	516	32	0	
3	0	0	0	0	0	509	507	530	33	0	
4	0	0	0	0	0	515	509	529	33	0	
5	0	0	0	0	0	512	511	537	34	0	
6	0	0	0	0	0	518	509	529	33	0	
7	0	0	0	0	0	516	509	520	31	0	
8	0	0	0	0	0	511	507	516	30	0	
9	0	0	0	0	0	512	508	503	29	0	
10	0	0	0	0	2	515	515	488	28	0	
11	0	0	0	0	0	511	515	495	29	0	
12	0	0	0	0	0	515	514	499	31	0	
13	0	0	0	0	0	514	516	509	31	0	
14	0	0	0	0	0	511	506	526	33	0	
15	0	0	0	0	0	515	505	525	33	0	
0	0	0	0	0	0	523	508	515	32	0	
1	0	0	0	0	0	525	507	523	32	0	
2	0	0	0	0	2	513	509	543	32	0	
3	0	0	0	0	0	507	510	542	32	0	
4	0	0	0	0	0	490	511	524	32	0	
5	0	0	0	0	0	481	505	490	32	0	
6	0	0	0	0	0	505	509	471	31	0	
7	0	0	0	0	0	522	505	473	31	0	
8	0	0	0	0	0	534	508	484	31	0	
9	0	0	0	0	0	536	510	497	31	0	
10	0	0	0	0	2	535	508	502	31	0	
11	0	0	0	0	0	529	510	513	31	0	
12	0	0	0	0	0	524	515	516	31	0	
13	0	0	0	0	0	519	516	526	31	0	
14	0	0	0	0	0	514	512	532	32	0	
15	0	0	0	0	0	502	511	539	32	0	
0	0	0	0	0	0	505	514	548	32	0	
1	0	0	0	0	0	513	514	524	32	0	
2	0	0	0	0	2	520	510	496	33	0	
3	0	0	0	0	0	509	506	495	32	0	
4	0	0	0	0	0	504	504	495	32	0	
5	0	0	0	0	0	505	503	484	32	0	
6	0	0	0	0	0	504	505	480	31	0	
7	0	0	0	0	0	490	502	503	30	0	
8	0	0	0	0	0	492	501	515	30	0	
9	0	0	0	0	0	511	506	511	31	0	
10	0	0	0	0	2	523	513	510	31	0	
11	0	0	0	0	0	526	518	519	31	0	
12	0	0	0	0	0	532	517	530	31	0	
13	0	0	0	0	0	529	515	526	32	0	
14	0	0	0	0	0	522	511	523	32	0	
15	0	0	0	0	0	507	509	516	32	0	
0	0	0	0	0	0	506	512	513	32	0	
1	0	0	0	0	0	520	509	515	31	0	
2	0	0	0	0	1	524	510	513	31	0	
3	0	0	0	0	0	514	511	523	31	0	
4	0	0	0	0	0	491	509	538	32	0	
5	0	0	0	0	0	500	505	519	32	0	
6	0	0	0	0	0	512	505	502	32	0	
7	0	0	0	0	0	519	506	487	32	0	
8	0	0	0	0	0	517	511	484	31	0	
9	0	0	0	0	0	517	515	487	31	0	
10	0	0	0	0	1	523	512	495	31	0	
11	0	0	0	0	0	519	497	515	32	0	
12	0	0	0	0	0	515	498	517	32	0	
13	0	0	0	0	0	514	505	526	32	0	
14	0	0	0	0	0	517	513	534	32	0	
15	0	0	0	0	0	515	518	521	32	0	
0	0	0	0	0	0	516	518	512	32	0	
1	0	0	0	0	0	519	519	509	32	0	
2	0	0	0	0	1	515	516	508	32	0	
3	0	0	0	0	0	506	513	510	31	0	
4	0	0	0	0	0	505	513	511	31	0	
5	0	0	0	0	0	504	515	511	31	0	
6	0	0	0	0	0	510	511	511	31	0	
7	0	0	0	0	0	521	510	513	31	0	
8	0	0	0	0	0	519	510	516	31	0	
9	0	0	0	0	0	510	503	529	32	0	
10	0	0	0	0	2	505	499	521	32	0	
11	0	0	0	0	0	506	500	515	33	0	
12	0	0	0	0	0	514	503	500	33	0	
13	0	0	0	0	0	521	508	506	32	0	
14	0	0	0	0	0	535	508	495	31	0	
15	0	0	0	0	0	528	511	484	31	0	
0	0	0	0	0	0	515	510	489	30	0	
1	0	0	0	0	0	491	506	507	31	0	
2	0	0	0	0	2	501	508	499	31	0	
3	0	0	0	0	0	515	515	494	31	0	
4	0	0	0	0	0	526	518	502	31	0	
5	0	0	0	0	0	525	520	509	31	0	
6	0	0	0	0	0	522	514	514	31	0	
7	0	0	0	0	0	526	515	518	31	0	
8	0	0	0	0	0	519	512	513	32	0	
9	0	0	0	0	0	501	511	516	33	0	
10	0	0	0	0	2	499	506	531	33	0	
11	0	0	0	0	0	505	504	531	33	0	
12	0	0	0	0	0	511	507	522	32	0	
13	0	0	0	0	0	516	512	519	32	0	
14	0	0	0	0	0	514	511	511	31	0	
15	0	0	0	0	0	511	512	506	31	0	
0	0	0	0	0	0	508	508	508	30	0	
1	0	0	0	0	0	504	509	511	30	0	
2	0	0	0	0	2	505	509	506	31	0	
3	0	0	0	0	0	514	511	494	31	0	
4	0	0	0	0	0	525	510	494	31	0	
5	0	0	0	0	0	524	508	508	32	0	
6	0	0	0	0	0	524	510	509	32	0	
7	0	0	0	0	0	522	513	510	32	0	
8	0	0	0	0	0	519	513	515	32	0	
9	0	0	0	0	0	515	510	516	32	0	
10	0	0	0	0	2	508	507	520	32	0	
11	0	0	0	0	0	506	502	520	32	0	
12	0	0	0	0	0	507	499	523	32	0	
13	0	0	0	0	0	509	504	519	32	0	
14	0	0	0	0	0	513	504	524	32	0	
15	0	0	0	0	0	513	503	529	33	0	
0	0	0	0	0	0	509	507	526	32	0	
1	0	0	0	0	0	508	511	516	32	0	
2	0	0	0	0	2	512	512	505	31	0	
3	0	0	0	0	0	520	519	494	30	0	
4	0	0	0	0	0	526	521	487	29	0	
5	0	0	0	0	0	520	516	491	30	0	
6	0	0	0	0	0	514	515	496	30	0	
7	0	0	0	0	0	510	513	502	31	0	
8	0	0	0	0	0	507	508	510	32	0	
9	0	0	0	0	0	511	505	514	32	0	
10	0	0	0	0	2	514	504	513	32	0	
11	0	0	0	0	0	517	506	512	32	0	
12	0	0	0	0	0	515	508	513	32	0	
13	0	0	0	0	0	514	508	513	32	0	
14	0	0	0	0	0	512	507	517	32	0	
15	0	0	0	0	0	508	506	520	32	0	
0	0	0	0	0	0	508	504	520	32	0	
1	0	0	0	0	0	510	506	515	32	0	
2	0	0	0	0	2	514	509	514	32	0	
3	0	0	0	0	0	512	509	515	32	0	
4	0	0	0	0	0	512	512	515	32	0	
5	0	0	0	0	0	511	514	518	32	0	
6	0	0	0	0	0	511	511	516	32	0	
7	0	0	0	0	0	518	510	517	32	0	
8	0	0	0	0	0	519	511	517	32	0	
9	0	0	0	0	0	524	512	507	31	0	
10	0	0	0	0	2	524	513	514	31	0	
11	0	0	0	0	0	519	510	509	32	0	
12	0	0	0	0	0	515	511	500	31	0	
13	0	0	0	0	0	516	511	494	32	0	
14	0	0	0	0	0	516	507	496	32	0	
15	0	0	0	0	0	514	508	498	31	0	
0	0	0	0	0	0	511	512	496	31	0	
1	0	0	0	0	0	509	509	501	31	0	
2	0	0	0	0	2	512	508	507	31	0	
3	0	0	0	0	0	508	507	517	31	0	
4	0	0	0	0	0	510	508	515	31	0	
5	0	0	0	0	0	513	510	507	31	0	
6	0	0	0	0	0	515	510	505	31	0	
7	0	0	0	0	0	512	512	500	31	0	
8	0	0	0	0	0	513	513	504	31	0	
9	0	0	0	0	0	516	507	513	32	0	
10	0	0	0	0	2	515	509	522	32	0	
11	0	0	0	0	0	513	507	528	32	0	
12	0	0	0	0	0	508	505	523	32	0	
13	0	0	0	0	0	503	509	525	32	0	
14	0	0	0	0	0	511	509	529	32	0	
15	0	0	0	0	0	513	508	529	32	0	
0	0	0	0	0	0	512	510	525	32	0	
1	0	0	0	0	0	516	510	512	32	0	
2	0	0	0	0	1	519	514	503	32	0	
3	0	0	0	0	0	519	508	503	32	0	
4	0	0	0	0	0	514	507	508	32	0	
5	0	0	0	0	0	508	506	511	32	0	
6	0	0	0	0	0	509	508	510	32	0	
7	0	0	0	0	0	514	511	509	31	0	
8	0	0	0	0	0	518	513	503	31	0	
9	0	0	0	0	0	525	515	491	31	0	
10	0	0	0	0	1	523	513	493	31	0	
11	0	0	0	0	0	519	514	494	31	0	
12	0	0	0	0	0	509	508	510	31	0	
13	0	0	0	0	0	511	509	516	31	0	
14	0	0	0	0	0	512	510	519	31	0	
15	0	0	0	0	0	519	511	525	31	0	
0	0	0	0	0	0	520	510	519	32	0	
1	0	0	0	0	0	526	511	513	31	0	
2	0	0	0	0	1	521	511	510	31	0	
3	0	0	0	0	0	518	510	509	31	0	
4	0	0	0	0	0	511	513	509	31	0	
5	0	0	0	0	0	509	509	511	32	0	
6	0	0	0	0	0	513	509	515	32	0	
7	0	0	0	0	0	511	508	515	32	0	
8	0	0	0	0	0	511	507	515	32	0	
9	0	0	0	0	0	507	505	514	32	0	
10	0	0	0	0	2	507	510	509	31	0	
11	0	0	0	0	0	508	509	509	31	0	
12	0	0	0	0	0	507	510	517	32	0	
13	0	0	0	0	0	508	509	516	32	0	
14	0	0	0	0	0	513	514	509	32	0	
15	0	0	0	0	0	515	509	514	32	0	
0	0	0	0	0	0	517	506	517	32	0	
1	0	0	0	0	0	520	509	518	32	0	
2	0	0	0	0	2	519	508	513	32	0	
3	0	0	0	0	0	518	508	508	31	0	
4	0	0	0	0	0	517	507	508	31	0	
5	0	0	0	0	0	517	511	511	31	0	
6	0	0	0	0	0	512	511	512	31	0	
7	0	0	0	0	0	513	512	508	32	0	
8	0	0	0	0	0	511	510	507	31	0	
9	0	0	0	0	0	512	510	509	31	0	
10	0	0	0	0	2	511	509	512	32	0	
11	0	0	0	0	0	513	508	510	31	0	
12	0	0	0	0	0	512	506	509	32	0	
13	0	0	0	0	0	507	508	508	32	0	
14	0	0	0	0	0	507	509	510	31	0	
15	0	0	0	0	0	511	510	510	31	0	
0	0	0	0	0	0	515	509	512	31	0	
1	0	0	0	0	0	519	510	510	31	0	
2	0	0	0	0	2	524	510	510	31	0	
3	0	0	0	0	0	521	510	510	31	0	
4	0	0	0	0	0	519	510	513	31	0	
5	0	0	0	0	0	518	511	514	32	0	
6	0	0	0	0	0	517	508	515	32	0	
7	0	0	0	0	0	512	511	511	32	0	
8	0	0	0	0	0	513	512	510	32	0	
9	0	0	0	0	0	513	513	510	31	0	
10	0	0	0	0	2	510	512	514	31	0	
11	0	0	0	0	0	509	511	514	31	0	
12	0	0	0	0	0	510	510	513	31	0	
13	0	0	0	0	0	511	506	512	32	0	
14	0	0	0	0	0	511	509	512	31	0	
15	0	0	0	0	0	513	508	504	31	0	
0	0	0	0	0	0	516	505	504	31	0	
1	0	0	0	0	0	517	509	506	31	0	
2	0	0	0	0	2	516	511	510	32	0	
3	0	0	0	0	0	514	508	516	32	0	
4	0	0	0	0	0	514	507	518	32	0	
5	0	0	0	0	0	513	510	519	32	0	
6	0	0	0	0	0	515	511	519	32	0	
7	0	0	0	0	0	512	513	518	31	0	
8	0	0	0	0	0	514	514	513	31	0	
9	0	0	0	0	0	512	511	512	31	0	
10	0	0	0	0	2	512	508	508	32	0	
11	0	0	0	0	0	513	507	511	32	0	
12	0	0	0	0	0	515	507	508	32	0	
13	0	0	0	0	0	515	507	504	32	0	
14	0	0	0	0	0	516	508	496	31	0	
15	0	0	0	0	0	514	511	500	31	0	
0	0	0	0	0	0	515	511	504	31	0	
1	0	0	0	0	0	515	511	507	31	0	
2	0	0	0	0	2	514	514	516	32	0	
3	0	0	0	0	0	513	507	521	32	0	
4	0	0	0	0	0	510	506	515	32	0	
5	0	0	0	0	0	513	510	503	32	0	
6	0	0	0	0	0	514	510	499	31	0	
7	0	0	0	0	0	511	508	497	30	0	
8	0	0	0	0	0	513	511	499	30	0	
9	0	0	0	0	0	515	511	510	30	0	
10	0	0	0	0	2	518	512	517	31	0	
11	0	0	0	0	0	515	514	518	31	0	
12	0	0	0	0	0	515	513	519	32	0	
13	0	0	0	0	0	515	510	518	32	0	
14	0	0	0	0	0	514	510	515	32	0	
15	0	0	0	0	0	513	505	515	32	0	
0	0	0	0	0	0	513	505	516	32	0	
1	0	0	0	0	0	513	507	518	32	0	
2	0	0	0	0	2	518	509	517	32	0	
3	0	0	0	0	0	519	509	514	32	0	
4	0	0	0	0	0	517	506	513	32	0	
5	0	0	0	0	0	514	507	513	32	0	
6	0	0	0	0	0	516	510	507	32	0	
7	0	0	0	0	0	515	512	504	32	0	
8	0	0	0	0	0	514	511	508	31	0	
9	0	0	0	0	1	511	512	515	31	0	
10	0	0	0	0	2	511	511	518	31	0	
11	0	0	0	0	0	511	511	517	32	0	
12	0	0	0	0	0	515	515	512	32	0	
13	0	0	0	0	0	515	512	513	32	0	
14	0	0	0	0	0	515	505	510	32	0	
15	0	0	0	0	0	513	505	507	31	0	
0	0	0	0	0	0	512	507	511	32	0	
1	0	0	0	0	0	511	511	511	32	0	
2	0	0	0	0	1	514	510	508	31	0	
3	0	0	0	0	0	512	508	507	31	0	
4	0	0	0	0	0	513	510	505	31	0	
5	0	0	0	0	0	510	510	505	31	0	
6	0	0	0	0	0	511	510	508	31	0	
7	0	0	0	0	0	518	509	509	31	0	
8	0	0	0	0	0	519	511	512	32	0	
9	0	0	0	0	0	518	510	519	32	0	
10	0	0	0	0	1	515	510	516	32	0	
11	0	0	0	0	0	512	512	515	32	0	
12	0	0	0	0	0	515	512	512	31	0	
13	0	0	0	0	0	513	511	507	31	0	
14	0	0	0	0	0	512	509	504	31	0	
15	0	0	0	0	0	513	507	513	31	0	
0	0	0	0	0	0	514	508	526	32	0	
1	0	0	0	0	0	512	507	523	32	0	
2	0	0	0	0	2	514	505	509	32	0	
3	0	0	0	0	0	514	507	504	32	0	
4	0	0	0	0	0	512	510	503	32	0	
5	0	0	0	0	0	512	510	509	32	0	
6	0	0	0	0	0	511	510	513	31	0	
7	0	0	0	0	0	511	510	511	31	0	
8	0	0	0	0	0	511	510	510	31	0	
9	0	0	0	0	0	512	512	512	31	0	
10	0	0	0	0	2	515	509	516	32	0	
11	0	0	0	0	0	516	512	517	32	0	
12	0	0	0	0	0	516	511	508	31	0	
13	0	0	0	0	0	513	510	507	32	0	
14	0	0	0	0	0	513	511	513	32	0	
15	0	0	0	0	0	512	508	516	32	0	
0	0	0	0	0	0	512	510	512	32	0	
1	0	0	0	0	0	515	511	509	31	0	
2	0	0	0	0	2	516	509	507	31	0	
3	0	0	0	0	0	517	511	509	31	0	
4	0	0	0	0	0	515	509	508	31	0	
5	0	0	0	0	0	516	508	505	31	0	
6	0	0	0	0	0	515	508	503	32	0	
7	0	0	0	0	0	516	511	506	32	0	
8	0	0	0	0	0	514	513	516	32	0	
9	0	0	0	0	0	513	508	521	32	0	
10	0	0	0	0	2	514	510	514	32	0	
11	0	0	0	0	0	513	512	516	32	0	
12	0	0	0	0	0	512	510	513	31	0	
13	0	0	0	0	0	515	512	509	31	0	
14	0	0	0	0	0	511	510	510	31	0	
15	0	0	0	0	0	512	508	513	32	0	
0	0	0	0	0	0	512	510	515	32	0	
1	0	0	0	0	0	512	507	510	32	0	
2	0	0	0	0	2	515	510	505	31	0	
3	0	0	0	0	0	515	508	505	31	0	
4	0	0	0	0	0	518	507	505	31	0	
5	0	0	0	0	0	517	507	504	31	0	
6	0	0	0	0	0	517	508	507	31	0	
7	0	0	0	0	0	515	509	515	32	0	
8	0	0	0	0	0	515	511	519	32	0	
9	0	0	0	0	0	515	513	515	31	0	
10	0	0	0	0	2	512	512	512	32	0	
11	0	0	0	0	0	514	512	508	32	0	
12	0	0	0	0	0	515	513	505	32	0	
13	0	0	0	0	0	515	513	508	31	0	
14	0	0	0	0	0	514	511	512	32	0	
15	0	0	0	0	0	514	509	511	31	0	
0	0	0	0	0	0	514	507	512	32	0	
1	0	0	0	0	0	511	508	512	32	0	
2	0	0	0	0	2	510	505	514	32	0	
3	0	0	0	0	0	512	507	516	32	0	
4	0	0	0	0	0	512	508	518	32	0	
5	0	0	0	0	0	514	510	515	31	0	
6	0	0	0	0	0	514	509	512	31	0	
7	0	0	0	0	0	517	511	508	31	0	
8	0	0	0	0	0	515	512	505	31	0	
9	0	0	0	0	0	511	513	505	31	0	
10	0	0	0	0	2	512	514	510	31	0	
11	0	0	0	0	0	512	513	509	31	0	
12	0	0	0	0	0	510	512	507	32	0	
13	0	0	0	0	0	511	512	512	32	0	
14	0	0	0	0	0	513	511	519	32	0	
15	0	0	0	0	0	515	508	519	32	0	
0	0	0	0	0	0	516	508	512	32	0	
1	0	0	0	0	0	518	506	509	32	0	
2	0	0	0	0	2	513	508	511	31	0	
3	0	0	0	0	0	512	505	513	31	0	
4	0	0	0	0	0	513	508	510	31	0	
5	0	0	0	0	0	514	510	508	31	0	
6	0	0	0	0	0	516	510	502	31	0	
7	0	0	0	0	0	517	510	504	31	0	
8	0	0	0	0	0	518	511	506	31	0	
9	0	0	0	0	0	517	511	509	31	0	
10	0	0	0	0	2	517	510	510	31	0	
11	0	0	0	0	0	514	510	511	31	0	
12	0	0	0	0	0	511	507	512	32	0	
13	0	0	0	0	0	512	512	512	31	0	
14	0	0	0	0	0	512	511	513	31	0	
15	0	0	0	0	0	511	512	517	31	0	
0	0	0	0	0	0	512	512	509	31	0	
1	0	0	0	0	0	515	511	512	31	0	
2	0	0	0	0	2	515	508	511	32	0	
3	0	0	0	0	0	515	508	508	32	0	
4	0	0	0	0	0	513	507	508	32	0	
5	0	0	0	0	0	515	507	505	32	0	
6	0	0	0	0	0	516	509	507	31	0	
7	0	0	0	0	0	515	508	509	32	0	
8	0	0	0	0	0	512	507	515	31	0	
9	0	0	0	0	0	512	508	520	31	0	
10	0	0	0	0	1	512	508	514	32	0	
11	0	0	0	0	0	513	510	512	32	0	
12	0	0	0	0	0	509	512	510	32	0	
13	0	0	0	0	0	511	512	511	32	0	
14	0	0	0	0	0	512	511	510	31	0	
15	0	0	0	0	0	513	512	514	32	0	
0	0	0	0	0	0	517	510	516	31	0	
1	0	0	0	0	0	521	509	513	31	0	
2	0	0	0	0	1	520	506	510	31	0	
3	0	0	0	0	0	516	506	513	32	0	
4	0	0	0	0	0	512	508	512	32	0	
5	0	0	0	0	0	517	508	508	32	0	
6	0	0	0	0	0	513	513	506	31	0	
7	0	0	0	0	0	510	515	506	31	0	
8	0	0	0	0	0	510	510	506	31	0	
9	0	0	0	0	0	510	508	510	31	0	
10	0	0	0	0	1	512	511	511	31	0	
11	0	0	0	0	0	511	510	512	31	0	
12	0	0	0	0	0	508	510	512	32	0	
13	0	0	0	0	0	507	510	515	32	0	
14	0	0	0	0	0	512	512	516	32	0	
15	0	0	0	0	0	518	510	515	32	0	
0	0	0	0	0	0	524	509	511	32	0	
1	0	0	0	0	0	524	510	508	32	0	
2	0	0	0	0	2	521	511	510	31	0	
3	0	0	0	0	0	516	513	507	31	0	
4	0	0	0	0	0	515	514	508	31	0	
5	0	0	0	0	0	513	510	510	31	0	
6	0	0	0	0	0	512	508	508	31	0	
7	0	0	0	0	0	512	507	510	31	0	
8	0	0	0	0	0	511	508	516	32	0	
9	0	0	0	0	0	511	506	515	32	0	
10	0	0	0	0	2	511	503	514	32	0	
11	0	0	0	0	0	514	504	514	32	0	
12	0	0	0	0	0	511	508	509	32	0	
13	0	0	0	0	0	513	510	508	32	0	
14	0	0	0	0	0	511	512	516	32	0	
15	0	0	0	0	0	512	512	524	32	0	
0	0	0	0	0	0	515	511	520	32	0	
1	0	0	0	0	0	515	509	510	31	0	
2	0	0	0	0	2	514	508	503	31	0	
3	0	0	0	0	0	518	509	493	31	0	
4	0	0	0	0	0	513	508	495	31	0	
5	0	0	0	0	0	513	510	496	32	0	
6	0	0	0	0	0	512	508	504	32	0	
7	0	0	0	0	0	513	507	510	32	0	
8	0	0	0	0	0	516	509	518	32	0	
9	0	0	0	0	0	518	511	518	32	0	
10	0	0	0	0	2	519	509	513	31	0	
11	0	0	0	0	0	518	512	510	31	0	
12	0	0	0	0	0	516	512	509	31	0	
13	0	0	0	0	0	515	515	509	31	0	
14	0	0	0	0	0	514	515	510	31	0	
15	0	0	0	0	0	515	512	512	32	0	
0	0	0	0	0	0	512	513	519	32	0	
1	0	0	0	0	0	513	510	515	31	0	
2	0	0	0	0	2	508	508	516	32	0	
3	0	0	0	0	0	510	509	515	32	0	
4	0	0	0	0	0	507	507	516	32	0	
5	0	0	0	0	0	509	506	514	32	0	
6	0	0	0	0	0	507	506	513	32	0	
7	0	0	0	0	0	512	509	510	32	0	
8	0	0	0	0	0	514	508	518	31	0	
9	0	0	0	0	0	516	508	519	31	0	
10	0	0	0	0	2	519	511	516	31	0	
11	0	0	0	0	0	518	511	514	32	0	
12	0	0	0	0	0	519	508	509	32	0	
13	0	0	0	0	0	516	505	508	32	0	
14	0	0	0	0	0	517	508	503	32	0	
15	0	0	0	0	0	515	510	502	32	0	
0	0	0	0	0	0	514	511	507	31	0	
1	0	0	0	0	0	513	509	508	31	0	
2	0	0	0	0	2	512	508	509	31	0	
3	0	0	0	0	0	513	508	508	31	0	
4	0	0	0	0	0	513	511	510	31	0	
5	0	0	0	0	0	513	515	509	31	0	
6	0	0	0	0	0	515	515	511	31	0	
7	0	0	0	0	0	516	515	514	31	0	
8	0	0	0	0	0	513	510	515	32	0	
9	0	0	0	0	0	513	510	513	32	0	
10	0	0	0	0	2	512	509	511	32	0	
11	0	0	0	0	0	511	507	508	32	0	
12	0	0	0	0	0	512	509	508	31	0	
13	0	0	0	0	0	514	506	509	32	0	
14	0	0	0	0	0	514	510	509	32	0	
15	0	0	0	0	0	517	510	510	31	0	
0	0	0	0	0	0	514	510	510	31	0	
1	0	0	0	0	0	513	509	514	31	0	
2	0	0	0	0	2	513	507	514	31	0	
3	0	0	0	0	0	513	506	513	32	0	
4	0	0	0	0	0	513	507	513	32	0	
5	0	0	0	0	0	516	508	512	32	0	
6	0	0	0	0	0	515	508	512	32	0	
7	0	0	0	0	0	512	507	515	32	0	
8	0	0	0	0	0	512	510	513	32	0	
9	0	0	0	0	0	515	512	511	32	0	
10	0	0	0	0	2	517	515	511	32	0	
11	0	0	0	0	0	524	512	512	32	0	
12	0	0	0	0	0	522	512	510	32	0	
13	0	0	0	0	0	519	510	510	31	0	
14	0	0	0	0	0	515	510	512	31	0	
15	0	0	0	0	0	508	504	512	32	0	
0	0	0	0	0	0	506	504	513	32	0	
1	0	0	0	0	0	507	510	509	31	0	
2	0	0	0	0	2	509	513	511	31	0	
3	0	0	0	0	0	512	514	512	31	0	
4	0	0	0	0	0	514	512	511	32	0	
5	0	0	0	0	0	512	512	510	32	0	
6	0	0	0	0	0	513	509	511	32	0	
7	0	0	0	0	0	517	510	514	32	0	
8	0	0	0	0	0	517	514	516	31	0	
9	0	0	0	0	0	514	513	515	32	0	
10	0	0	0	0	1	511	511	513	32	0	
11	0	0	0	0	0	512	508	514	31	0	
12	0	0	0	0	0	515	507	511	32	0	
13	0	0	0	0	0	519	505	512	32	0	
14	0	0	0	0	0	522	507	507	31	0	
15	0	0	0	0	0	519	508	510	32	0	
0	0	0	0	0	0	514	507	509	31	0	
1	0	0	0	0	0	508	509	503	32	0	
2	0	0	0	0	1	510	508	498	31	0	
3	0	0	0	0	0	512	509	496	31	0	
4	0	0	0	0	0	513	508	497	31	0	
5	0	0	0	0	0	515	508	500	32	0	
6	0	0	0	0	0	513	509	505	32	0	
7	0	0	0	0	0	513	511	509	31	0	
8	0	0	0	0	0	513	509	514	31	0	
9	0	0	0	0	0	513	503	512	31	0	
10	0	0	0	0	1	514	502	515	31	0	
11	0	0	0	0	0	513	503	514	31	0	
12	0	0	0	0	0	513	510	519	31	0	
13	0	0	0	0	0	513	516	518	31	0	
14	0	0	0	0	0	513	518	519	31	0	
15	0	0	0	0	0	516	514	520	31	0	
0	0	0	0	0	0	518	514	516	31	0	
1	0	0	0	0	0	515	515	515	32	0	
2	0	0	0	0	2	514	515	509	32	0	
3	0	0	0	0	0	514	512	508	32	0	
4	0	0	0	0	0	515	513	513	32	0	
5	0	0	0	0	0	517	514	512	32	0	
6	0	0	0	0	0	518	508	512	32	0	
7	0	0	0	0	0	514	505	514	32	0	
8	0	0	0	0	0	509	508	526	31	0	
9	0	0	0	0	0	508	510	528	32	0	
10	0	0	0	0	2	513	505	523	31	0	
11	0	0	0	0	0	514	505	511	31	0	
12	0	0	0	0	0	517	505	499	31	0	
13	0	0	0	0	0	515	506	490	31	0	
14	0	0	0	0	0	513	508	486	31	0	
15	0	0	0	0	0	511	511	495	32	0	
0	0	0	0	0	0	513	512	503	32	0	
1	0	0	0	0	0	513	508	508	32	0	
2	0	0	0	0	2	511	507	514	32	0	
3	0	0	0	0	0	513	507	516	32	0	
4	0	0	0	0	0	515	509	518	32	0	
5	0	0	0	0	0	516	508	519	32	0	
6	0	0	0	0	0	515	510	519	31	0	
7	0	0	0	0	0	512	507	516	31	0	
8	0	0	0	0	0	512	507	513	31	0	
9	0	0	0	0	0	515	508	513	32	0	
10	0	0	0	0	2	513	508	511	32	0	
11	0	0	0	0	0	515	504	512	32	0	
12	0	0	0	0	0	516	512	510	32	0	
13	0	0	0	0	0	517	519	511	31	0	
14	0	0	0	0	0	517	520	510	31	0	
15	0	0	0	0	0	516	516	512	31	0	
0	0	0	0	0	0	516	512	514	31	0	
1	0	0	0	0	0	515	512	512	32	0	
2	0	0	0	0	2	513	511	510	31	0	
3	0	0	0	0	0	512	512	509	31	0	
4	0	0	0	0	0	509	511	510	31	0	
5	0	0	0	0	0	509	509	510	31	0	
6	0	0	0	0	0	511	507	512	31	0	
7	0	0	0	0	0	512	503	512	32	0	
8	0	0	0	0	0	511	505	512	31	0	
9	0	0	0	0	0	511	505	511	32	0	
10	0	0	0	0	2	515	506	511	31	0	
11	0	0	0	0	0	518	509	508	31	0	
12	0	0	0	0	0	518	510	511	31	0	
13	0	0	0	0	0	514	508	516	32	0	
14	0	0	0	0	0	514	510	513	32	0	
15	0	0	0	0	0	514	510	509	32	0	
0	0	0	0	0	0	513	511	506	32	0	
1	0	0	0	0	0	513	515	508	32	0	
2	0	0	0	0	2	512	516	508	32	0	
3	0	0	0	0	0	513	515	507	31	0	
4	0	0	0	0	0	513	512	511	31	0	
5	0	0	0	0	0	513	510	512	31	0	
6	0	0	0	0	0	515	508	515	32	0	
7	0	0	0	0	0	512	508	514	32	0	
8	0	0	0	0	0	511	506	514	32	0	
9	0	0	0	0	0	512	504	509	31	0	
10	0	0	0	0	2	514	505	509	31	0	
11	0	0	0	0	0	516	508	508	31	0	
12	0	0	0	0	0	518	509	510	31	0	
13	0	0	0	0	0	516	511	510	32	0	
14	0	0	0	0	0	517	509	514	32	0	
15	0	0	0	0	0	513	508	514	31	0	
0	0	0	0	0	0	511	508	512	32	0	
1	0	0	0	0	0	517	508	512	32	0	
2	0	0	0	0	2	520	510	508	32	0	
3	0	0	0	0	0	519	515	507	31	0	
4	0	0	0	0	0	514	515	509	31	0	
5	0	0	0	0	0	513	515	510	32	0	
6	0	0	0	0	0	511	510	511	31	0	
7	0	0	0	0	0	510	505	511	31	0	
8	0	0	0	0	0	512	504	509	31	0	
9	0	0	0	0	0	511	506	507	31	0	
10	0	0	0	0	2	515	505	508	31	0	
11	0	0	0	0	0	516	507	510	32	0	
12	0	0	0	0	0	513	511	511	31	0	
13	0	0	0	0	0	517	515	514	32	0	
14	0	0	0	0	0	518	511	512	32	0	
15	0	0	0	0	0	516	512	514	32	0	
0	0	0	0	0	0	514	512	511	31	0	
1	0	0	0	0	0	513	511	510	31	0	
2	0	0	0	0	2	512	512	511	32	0	
3	0	0	0	0	0	511	509	512	32	0	
4	0	0	0	0	0	511	508	512	32	0	
5	0	0	0	0	0	510	508	512	32	0	
6	0	0	0	0	0	510	508	511	32	0	
7	0	0	0	0	0	511	511	511	31	0	
8	0	0	0	0	0	510	509	510	31	0	
9	0	0	0	0	0	515	508	513	32	0	
10	0	0	0	0	1	513	505	512	32	0	
11	0	0	0	0	0	515	505	513	32	0	
12	0	0	0	0	0	511	506	512	32	0	
13	0	0	0	0	0	510	507	510	31	0	
14	0	0	0	0	0	515	510	509	31	0	
15	0	0	0	0	0	514	512	508	32	0	
0	0	0	0	0	0	515	512	512	32	0	
1	0	0	0	0	0	521	515	512	31	0	
2	0	0	0	0	1	520	515	512	31	0	
3	0	0	0	0	0	520	513	512	31	0	
4	0	0	0	0	0	515	510	510	31	0	
5	0	0	0	0	0	515	504	509	31	0	
6	0	0	0	0	0	514	507	507	31	0	
7	0	0	0	0	0	513	508	509	31	0	
8	0	0	0	0	0	513	511	512	32	0	
9	0	0	0	0	0	510	512	513	32	0	
10	0	0	0	0	2	509	509	513	32	0	
11	0	0	0	0	0	510	505	515	32	0	
12	0	0	0	0	0	511	509	514	32	0	
13	0	0	0	0	0	513	512	507	31	0	
14	0	0	0	0	0	513	513	514	31	0	
15	0	0	0	0	0	517	510	509	31	0	
0	0	0	0	0	0	519	509	508	31	0	
1	0	0	0	0	0	519	510	508	31	0	
2	0	0	0	0	2	518	509	509	31	0	
3	0	0	0	0	0	515	511	509	32	0	
4	0	0	0	0	0	512	510	511	32	0	
5	0	0	0	0	0	512	508	512	32	0	
6	0	0	0	0	0	509	506	512	32	0	
7	0	0	0	0	0	511	508	516	32	0	
8	0	0	0	0	0	508	507	515	32	0	
9	0	0	0	0	0	513	509	514	31	0	
10	0	0	0	0	2	516	513	515	31	0	
11	0	0	0	0	0	515	515	512	31	0	
12	0	0	0	0	0	511	513	513	32	0	
13	0	0	0	0	0	510	507	511	31	0	
14	0	0	0	0	0	510	504	514	32	0	
15	0	0	0	0	0	509	508	512	32	0	
0	0	0	0	0	0	512	510	506	31	0	
1	0	0	0	0	0	514	512	503	31	0	
2	0	0	0	0	2	514	512	505	31	0	
3	0	0	0	0	0	518	510	510	31	0	
4	0	0	0	0	0	521	508	509	31	0	
5	0	0	0	0	0	519	510	511	32	0	
6	0	0	0	0	0	519	511	515	32	0	
7	0	0	0	0	0	520	510	515	32	0	
8	0	0	0	0	0	515	509	517	32	0	
9	0	0	0	0	0	516	510	511	32	0	
10	0	0	0	0	2	517	510	509	32	0	
11	0	0	0	0	0	515	510	508	31	0	
12	0	0	0	0	0	513	510	507	31	0	
13	0	0	0	0	0	512	509	508	31	0	
14	0	0	0	0	0	510	506	510	31	0	
15	0	0	0	0	0	510	511	507	31	0	
0	0	0	0	0	0	510	510	509	31	0	
1	0	0	0	0	0	509	509	510	31	0	
2	0	0	0	0	2	515	510	513	32	0	
3	0	0	0	0	0	517	511	516	32	0	
4	0	0	0	0	0	513	511	516	32	0	
5	0	0	0	0	0	511	508	515	32	0	
6	0	0	0	0	0	512	508	513	32	0	
7	0	0	0	0	0	513	508	511	32	0	
8	0	0	0	0	0	513	504	509	32	0	
9	0	0	0	0	0	513	505	508	32	0	
10	0	0	0	0	2	513	507	506	32	0	
11	0	0	0	0	0	516	512	508	31	0	
12	0	0	0	0	0	520	517	511	31	0	
13	0	0	0	0	0	515	515	510	31	0	
14	0	0	0	0	0	514	509	514	32	0	
15	0	0	0	0	0	513	507	516	32	0	
0	0	0	0	0	0	510	508	514	31	0	
1	0	0	0	0	0	511	508	513	31	0	
2	0	0	0	0	2	511	512	512	31	0	
3	0	0	0	0	0	515	509	509	31	0	
4	0	0	0	0	0	519	508	513	31	0	
5	0	0	0	0	0	520	504	512	32	0	
6	0	0	0	0	0	516	503	512	32	0	
7	0	0	0	0	0	514	507	510	32	0	
8	0	0	0	0	0	516	515	511	32	0	
9	0	0	0	0	0	514	521	506	31	0	
10	0	0	0	0	2	513	519	508	31	0	
11	0	0	0	0	0	512	516	514	32	0	
12	0	0	0	0	0	514	512	512	32	0	
13	0	0	0	0	0	513	508	515	32	0	
14	0	0	0	0	0	512	506	514	32	0	
15	0	0	0	0	0	515	505	508	31	0	
0	0	0	0	0	0	515	504	509	31	0	
1	0	0	0	0	0	518	505	512	32	0	
2	0	0	0	0	2	517	507	513	32	0	
3	0	0	0	0	0	518	516	510	31	0	
4	0	0	0	0	0	515	518	508	31	0	
5	0	0	0	0	0	514	511	505	31	0	
6	0	0	0	0	0	511	504	509	32	0	
7	0	0	0	0	0	510	503	509	32	0	
8	0	0	0	0	0	508	508	510	32	0	
9	0	0	0	0	0	505	511	512	32	0	
10	0	0	0	0	2	506	511	512	31	0	
11	0	0	0	0	0	510	511	511	31	0	
12	0	0	0	0	0	510	509	515	31	0	
13	0	0	0	0	0	513	507	512	32	0	
14	0	0	0	0	0	513	507	512	32	0	
15	0	0	0	0	0	514	505	510	32	0	
0	0	0	0	0	0	515	507	511	32	0	
1	0	0	0	0	0	516	505	512	32	0	
2	0	0	0	0	1	519	507	514	32	0	
3	0	0	0	0	0	519	511	509	31	0	
4	0	0	0	0	0	516	514	511	31	0	
5	0	0	0	0	0	515	513	513	32	0	
6	0	0	0	0	0	513	510	512	32	0	
7	0	0	0	0	0	515	512	511	32	0	
8	0	0	0	0	0	515	515	513	32	0	
9	0	0	0	0	0	513	511	512	31	0	
10	0	0	0	0	1	514	508	510	31	0	
11	0	0	0	0	0	513	510	507	31	0	
12	0	0	0	0	0	516	510	509	32	0	
13	0	0	0	0	0	516	511	512	32	0	
14	0	0	0	0	0	518	511	512	32	0	
15	0	0	0	0	0	516	514	509	32	0	
0	0	0	0	0	0	515	511	511	32	0	
1	0	0	0	0	0	514	508	515	32	0	
2	0	0	0	0	1	512	508	514	32	0	
3	0	0	0	0	0	512	507	512	31	0	
4	0	0	0	0	0	515	510	509	31	0	
5	0	0	0	0	0	513	510	508	31	0	
6	0	0	0	0	0	512	509	506	31	0	
7	0	0	0	0	0	511	506	510	32	0	
8	0	0	0	0	0	513	508	508	31	0	
9	0	0	0	0	0	513	511	515	31	0	
10	0	0	0	0	2	516	515	515	31	0	
11	0	0	0	0	0	518	516	511	32	0	
12	0	0	0	0	0	517	518	508	32	0	
13	0	0	0	0	0	512	516	506	31	0	
14	0	0	0	0	0	510	510	511	31	0	
15	0	0	0	0	0	509	505	514	31	0	
0	0	0	0	0	0	512	503	513	32	0	
1	0	0	0	0	0	512	503	513	32	0	
2	0	0	0	0	2	512	504	513	32	0	
3	0	0	0	0	0	515	504	510	32	0	
4	0	0	0	0	0	515	507	510	32	0	
5	0	0	0	0	0	519	507	512	32	0	
6	0	0	0	0	0	519	507	513	32	0	
7	0	0	0	0	0	516	505	513	32	0	
8	0	0	0	0	0	516	508	510	31	0	
9	0	0	0	0	0	514	511	511	32	0	
10	0	0	0	0	2	510	515	508	31	0	
11	0	0	0	0	0	511	510	511	31	0	
12	0	0	0	0	0	508	508	513	32	0	
13	0	0	0	0	0	508	507	513	32	0	
14	0	0	0	0	0	508	509	513	32	0	
15	0	0	0	0	0	509	508	511	32	0	
0	0	0	0	0	0	512	509	510	32	0	
1	0	0	0	0	0	515	510	506	32	0	
2	0	0	0	0	2	519	508	508	32	0	
3	0	0	0	0	0	515	510	514	32	0	
4	0	0	0	0	0	517	515	515	31	0	
5	0	0	0	0	0	515	516	511	31	0	
6	0	0	0	0	0	515	513	511	31	0	
7	0	0	0	0	0	515	513	512	31	0	
8	0	0	0	0	0	516	512	509	31	0	
9	0	0	0	0	0	517	508	507	31	0	
10	0	0	0	0	2	516	505	510	32	0	
11	0	0	0	0	0	518	505	511	32	0	
12	0	0	0	0	0	522	510	514	32	0	
13	0	0	0	0	0	519	508	510	32	0	
14	0	0	0	0	0	517	508	513	32	0	
15	0	0	0	0	0	517	510	515	32	0	
0	0	0	0	0	0	511	511	512	32	0	
1	0	0	0	0	0	507	512	512	31	0	
2	0	0	0	0	3	505	509	512	31	0	
3	0	0	0	0	0	503	507	507	31	0	
4	0	0	0	0	0	504	505	508	31	0	
5	0	0	0	0	0	504	507	511	31	0	
6	0	0	0	0	0	510	509	510	31	0	
7	0	0	0	0	0	511	508	511	31	0	
8	0	0	0	0	0	512	511	511	32	0	
9	0	0	0	0	0	515	511	510	32	0	
10	0	0	0	0	2	520	511	512	32	0	
11	0	0	0	0	0	519	511	513	32	0	
12	0	0	0	0	0	519	512	513	31	0	
13	0	0	0	0	0	519	512	511	32	0	
14	0	0	0	0	0	517	508	510	31	0	
15	0	0	0	0	0	515	510	508	32	0	
0	0	0	0	0	0	516	512	509	32	0	
1	0	0	0	0	0	519	510	510	31	0	
2	0	0	0	0	2	519	506	510	32	0	
3	0	0	0	0	0	516	504	512	32	0	
4	0	0	0	0	0	513	508	514	31	0	
5	0	0	0	0	0	507	510	514	32	0	
6	0	0	0	0	0	511	511	514	32	0	
7	0	0	0	0	0	507	513	517	32	0	
8	0	0	0	0	0	511	513	514	32	0	
9	0	0	0	0	0	514	511	510	32	0	
10	0	0	0	0	2	515	510	511	32	0	
11	0	0	0	0	0	515	508	509	32	0	
12	0	0	0	0	0	516	505	508	32	0	
13	0	0	0	0	0	519	504	515	32	0	
14	0	0	0	0	0	522	506	511	32	0	
15	0	0	0	0	0	516	510	503	31	0	
0	0	0	0	0	0	508	510	509	31	0	
1	0	0	0	0	0	505	515	512	31	0	
2	0	0	0	0	2	507	514	510	31	0	
3	0	0	0	0	0	507	513	506	31	0	
4	0	0	0	0	0	510	514	501	31	0	
5	0	0	0	0	0	511	513	500	31	0	
6	0	0	0	0	0	514	509	505	31	0	
7	0	0	0	0	0	515	507	509	31	0	
8	0	0	0	0	0	519	504	510	31	0	
9	0	0	0	0	0	519	505	511	32	0	
10	0	0	0	0	2	516	505	513	32	0	
11	0	0	0	0	0	516	506	519	32	0	
12	0	0	0	0	0	518	511	524	32	0	
13	0	0	0	0	0	519	513	520	32	0	
14	0	0	0	0	0	521	513	512	32	0	
15	0	0	0	0	0	519	512	508	31	0	
0	0	0	0	0	0	511	513	507	31	0	
1	0	0	0	0	0	508	511	510	31	0	
2	0	0	0	0	1	507	507	515	32	0	
3	0	0	0	0	0	505	505	515	32	0	
4	0	0	0	0	0	503	506	509	32	0	
5	0	0	0	0	0	508	505	504	31	0	
6	0	0	0	0	0	510	510	501	31	0	
7	0	0	0	0	0	511	513	504	31	0	
8	0	0	0	0	0	511	516	515	31	0	
9	0	0	0	0	0	515	513	518	32	0	
10	0	0	0	0	1	517	509	517	32	0	
11	0	0	0	0	0	520	514	519	32	0	
12	0	0	0	0	0	522	515	515	32	0	
13	0	0	0	0	0	526	513	511	32	0	
14	0	0	0	0	0	526	509	511	31	0	
15	0	0	0	0	0	520	506	509	31	0	
0	0	0	0	0	0	518	507	505	30	0	
1	0	0	0	0	0	511	506	503	31	0	
2	0	0	0	0	1	507	508	506	32	0	
3	0	0	0	0	0	505	512	507	32	0	
4	0	0	0	0	0	509	513	511	32	0	
5	0	0	0	0	0	515	505	513	32	0	
6	0	0	0	0	0	511	502	516	32	0	
7	0	0	0	0	0	515	498	511	32	0	
8	0	0	0	0	0	515	500	510	31	0	
9	0	0	0	0	0	512	505	507	31	0	
10	0	0	0	0	2	511	509	512	32	0	
11	0	0	0	0	0	514	512	517	32	0	
12	0	0	0	0	0	517	515	517	32	0	
13	0	0	0	0	0	519	513	520	32	0	
14	0	0	0	0	0	522	512	516	32	0	
15	0	0	0	0	0	520	509	514	32	0	
0	0	0	0	0	0	517	513	510	32	0	
1	0	0	0	0	0	513	514	506	32	0	
2	0	0	0	0	2	507	514	511	31	0	
3	0	0	0	0	0	504	517	516	32	0	
4	0	0	0	0	0	503	516	519	31	0	
5	0	0	0	0	0	501	512	517	31	0	
6	0	0	0	0	0	505	511	516	31	0	
7	0	0	0	0	0	511	510	515	31	0	
8	0	0	0	0	0	514	506	515	31	0	
9	0	0	0	0	0	513	506	517	31	0	
10	0	0	0	0	2	515	510	513	31	0	
11	0	0	0	0	0	519	510	497	31	0	
12	0	0	0	0	0	523	507	490	31	0	
13	0	0	0	0	0	523	499	491	32	0	
14	0	0	0	0	0	519	499	499	32	0	
15	0	0	0	0	0	516	502	513	32	0	
0	0	0	0	0	0	513	509	525	32	0	
1	0	0	0	0	0	510	512	529	32	0	
2	0	0	0	0	2	521	508	528	32	0	
3	0	0	0	0	0	528	510	516	32	0	
4	0	0	0	0	0	525	507	502	31	0	
5	0	0	0	0	0	514	509	488	31	0	
6	0	0	0	0	0	500	510	488	31	0	
7	0	0	0	0	0	496	516	501	31	0	
8	0	0	0	0	0	501	516	519	31	0	
9	0	0	0	0	0	505	515	524	31	0	
10	0	0	0	0	2	511	513	530	31	0	
11	0	0	0	0	0	516	512	522	32	0	
12	0	0	0	0	0	523	513	509	32	0	
13	0	0	0	0	0	520	514	505	31	0	
14	0	0	0	0	0	518	512	501	31	0	
15	0	0	0	0	0	516	512	504	31	0	
0	0	0	0	0	0	513	513	507	31	0	
1	0	0	0	0	0	515	512	507	32	0	
2	0	0	0	0	2	513	510	509	32	0	
3	0	0	0	0	0	512	511	511	32	0	
4	0	0	0	0	0	515	510	512	32	0	
5	0	0	0	0	0	516	513	516	32	0	
6	0	0	0	0	0	521	512	517	31	0	
7	0	0	0	0	0	523	508	518	31	0	
8	0	0	0	0	0	525	504	519	32	0	
9	0	0	0	0	0	515	498	513	32	0	
10	0	0	0	0	2	506	503	500	32	0	
11	0	0	0	0	0	502	501	500	31	0	
12	0	0	0	0	0	499	499	503	31	0	
13	0	0	0	0	0	508	509	505	31	0	
14	0	0	0	0	0	518	513	507	32	0	
15	0	0	0	0	0	521	508	514	32	0	
0	0	0	0	0	0	516	508	525	32	0	
1	0	0	0	0	0	513	504	528	32	0	
2	0	0	0	0	2	510	499	519	32	0	
3	0	0	0	0	0	512	501	518	32	0	
4	0	0	0	0	0	508	509	511	32	0	
5	0	0	0	0	0	510	521	497	31	0	
6	0	0	0	0	0	508	528	502	31	0	
7	0	0	0	0	0	506	528	503	31	0	
8	0	0	0	0	0	511	521	504	31	0	
9	0	0	0	0	0	516	511	511	31	0	
10	0	0	0	0	2	520	510	515	32	0	
11	0	0	0	0	0	520	512	516	32	0	
12	0	0	0	0	0	518	513	513	32	0	
13	0	0	0	0	0	513	507	509	32	0	
14	0	0	0	0	0	512	498	510	31	0	
15	0	0	0	0	0	512	494	515	31	0	
0	0	0	0	0	0	518	495	512	32	0	
1	0	0	0	0	0	518	498	514	32	0	
2	0	0	0	0	2	516	508	510	32	0	
3	0	0	0	0	0	516	508	506	32	0	
4	0	0	0	0	0	512	506	521	32	0	
5	0	0	0	0	0	516	512	532	32	0	
6	0	0	0	0	0	523	513	527	32	0	
7	0	0	0	0	0	521	517	518	32	0	
8	0	0	0	0	0	519	516	506	32	0	
9	0	0	0	0	0	511	510	492	31	0	
10	0	0	0	0	2	505	509	487	31	0	
11	0	0	0	0	0	501	510	492	31	0	
12	0	0	0	0	0	508	510	499	31	0	
13	0	0	0	0	0	515	513	512	31	0	
14	0	0	0	0	0	514	517	510	31	0	
15	0	0	0	0	0	515	514	512	32	0	
0	0	0	0	0	0	515	511	509	32	0	
1	0	0	0	0	0	512	513	516	32	0	
2	0	0	0	0	1	515	510	519	32	0	
3	0	0	0	0	0	518	509	519	32	0	
4	0	0	0	0	0	518	511	513	32	0	
5	0	0	0	0	0	519	512	518	32	0	
6	0	0	0	0	0	521	505	521	31	0	
7	0	0	0	0	0	523	508	516	31	0	
8	0	0	0	0	0	518	507	512	31	0	
9	0	0	0	0	0	513	507	506	31	0	
10	0	0	0	0	1	504	509	507	32	0	
11	0	0	0	0	0	507	512	502	31	0	
12	0	0	0	0	0	506	513	508	31	0	
13	0	0	0	0	0	505	518	514	31	0	
14	0	0	0	0	0	508	513	514	31	0	
15	0	0	0	0	0	511	504	516	32	0	
0	0	0	0	0	0	517	496	513	32	0	
1	0	0	0	0	0	516	495	514	32	0	
2	0	0	0	0	2	515	500	515	32	0	
3	0	0	0	0	0	513	503	518	32	0	
4	0	0	0	0	0	521	511	516	32	0	
5	0	0	0	0	0	523	516	511	32	0	
6	0	0	0	0	0	517	515	504	31	0	
7	0	0	0	0	0	516	515	503	31	0	
8	0	0	0	0	0	514	512	499	31	0	
9	0	0	0	0	0	516	508	503	31	0	
10	0	0	0	0	2	508	511	507	31	0	
11	0	0	0	0	0	504	515	511	32	0	
12	0	0	0	0	0	509	517	519	32	0	
13	0	0	0	0	0	519	515	524	32	0	
14	0	0	0	0	0	520	516	522	32	0	
15	0	0	0	0	0	516	516	509	31	0	
0	0	0	0	0	0	507	509	496	31	0	
1	0	0	0	0	0	502	510	507	31	0	
2	0	0	0	0	2	505	508	512	31	0	
3	0	0	0	0	0	510	503	510	32	0	
4	0	0	0	0	0	510	508	511	31	0	
5	0	0	0	0	0	513	508	516	32	0	
6	0	0	0	0	0	519	505	517	32	0	
7	0	0	0	0	0	515	506	510	32	0	
8	0	0	0	0	0	514	511	512	32	0	
9	0	0	0	0	0	512	510	512	32	0	
10	0	0	0	0	2	514	512	512	32	0	
11	0	0	0	0	0	514	509	517	32	0	
12	0	0	0	0	0	519	510	515	32	0	
13	0	0	0	0	0	523	508	509	31	0	
14	0	0	0	0	0	519	505	509	31	0	
15	0	0	0	0	0	517	507	513	31	0	
0	0	0	0	0	0	514	510	516	32	0	
1	0	0	0	0	0	514	510	512	32	0	
2	0	0	0	0	2	518	508	510	32	0	
3	0	0	0	0	0	519	513	514	32	0	
4	0	0	0	0	0	516	511	513	32	0	
5	0	0	0	0	0	515	512	515	32	0	
6	0	0	0	0	0	514	510	522	32	0	
7	0	0	0	0	0	514	506	516	32	0	
8	0	0	0	0	0	509	510	504	31	0	
9	0	0	0	0	0	508	511	498	31	0	
10	0	0	0	0	2	507	516	492	31	0	
11	0	0	0	0	0	506	515	493	30	0	
12	0	0	0	0	0	511	511	495	31	0	
13	0	0	0	0	0	520	508	499	32	0	
14	0	0	0	0	0	519	508	508	31	0	
15	0	0	0	0	0	518	506	510	32	0	
0	0	0	0	0	0	515	508	519	32	0	
1	0	0	0	0	0	516	511	518	32	0	
2	0	0	0	0	2	516	510	519	32	0	
3	0	0	0	0	0	516	508	524	32	0	
4	0	0	0	0	0	512	508	525	32	0	
5	0	0	0	0	0	509	509	520	32	0	
6	0	0	0	0	0	512	510	511	32	0	
7	0	0	0	0	0	512	509	504	32	0	
8	0	0	0	0	0	508	510	509	32	0	
9	0	0	0	0	0	505	511	519	32	0	
10	0	0	0	0	2	511	510	514	31	0	
11	0	0	0	0	0	517	508	512	31	0	
12	0	0	0	0	0	514	509	515	31	0	
13	0	0	0	0	0	520	509	502	31	0	
14	0	0	0	0	0	520	510	491	31	0	
15	0	0	0	0	0	515	511	493	32	0	
0	0	0	0	0	0	512	511	496	31	0	
1	0	0	0	0	0	511	510	508	32	0	
2	0	0	0	0	2	511	509	522	32	0	
3	0	0	0	0	0	513	510	528	32	0	
4	0	0	0	0	0	512	512	525	32	0	
5	0	0	0	0	0	516	513	519	32	0	
6	0	0	0	0	0	519	516	511	31	0	
7	0	0	0	0	0	520	515	508	31	0	
8	0	0	0	0	0	518	513	504	31	0	
9	0	0	0	0	0	516	510	504	31	0	
10	0	0	0	0	2	516	507	504	31	0	
11	0	0	0	0	0	512	506	505	31	0	
12	0	0	0	0	0	510	508	504	31	0	
13	0	0	0	0	0	511	507	512	32	0	
14	0	0	0	0	0	510	506	519	32	0	
15	0	0	0	0	0	513	504	515	32	0	
0	0	0	0	0	0	517	508	515	32	0	
1	0	0	0	0	0	516	510	514	32	0	
2	0	0	0	0	2	512	509	519	31	0	
3	0	0	0	0	0	514	507	519	32	0	
4	0	0	0	0	0	513	505	519	32	0	
5	0	0	0	0	0	510	508	531	32	0	
6	0	0	0	0	0	512	510	529	32	0	
7	0	0	0	0	0	515	509	521	32	0	
8	0	0	0	0	0	513	510	516	32	0	
9	0	0	0	0	0	512	509	505	31	0	
10	0	0	0	0	1	514	512	498	30	0	
11	0	0	0	0	0	513	511	489	30	0	
12	0	0	0	0	0	517	510	490	30	0	
13	0	0	0	0	0	516	509	500	31	0	
14	0	0	0	0	0	516	512	517	32	0	
15	0	0	0	0	0	516	511	516	32	0	
0	0	0	0	0	0	515	509	515	32	0	
1	0	0	0	0	0	515	509	506	32	0	
2	0	0	0	0	1	514	511	504	32	0	
3	0	0	0	0	0	512	511	515	32	0	
4	0	0	0	0	0	513	512	526	32	0	
5	0	0	0	0	0	512	508	533	32	0	
6	0	0	0	0	0	515	510	521	32	0	
7	0	0	0	0	0	515	515	501	31	0	
8	0	0	0	0	0	516	512	482	31	0	
9	0	0	0	0	0	513	512	477	30	0	
10	0	0	0	0	1	512	512	479	30	0	
11	0	0	0	0	0	514	511	492	31	0	
12	0	0	0	0	0	515	512	501	31	0	
13	0	0	0	0	0	515	510	511	32	0	
14	0	0	0	0	0	512	506	524	33	0	
15	0	0	0	0	0	513	505	531	33	0	
0	0	0	0	0	0	514	506	522	32	0	
1	0	0	0	0	0	516	506	516	32	0	
2	0	0	0	0	2	513	509	519	31	0	
3	0	0	0	0	0	511	512	522	31	0	
4	0	0	0	0	0	514	513	523	31	0	
5	0	0	0	0	0	513	512	529	31	0	
6	0	0	0	0	0	521	508	521	32	0	
7	0	0	0	0	0	512	505	518	32	0	
8	0	0	0	0	0	511	510	498	32	0	
9	0	0	0	0	0	515	513	501	32	0	
10	0	0	0	0	2	512	509	515	32	0	
11	0	0	0	0	0	512	510	514	32	0	
12	0	0	0	0	0	512	509	510	31	0	
13	0	0	0	0	0	512	508	504	31	0	
14	0	0	0	0	0	513	508	508	31	0	
15	0	0	0	0	0	517	511	507	31	0	
0	0	0	0	0	0	517	511	507	31	0	
1	0	0	0	0	0	515	511	508	31	0	
2	0	0	0	0	2	516	510	512	31	0	
3	0	0	0	0	0	511	509	520	32	0	
4	0	0	0	0	0	515	509	513	32	0	
5	0	0	0	0	0	513	509	510	32	0	
6	0	0	0	0	0	516	508	504	32	0	
7	0	0	0	0	0	515	510	506	32	0	
8	0	0	0	0	0	514	512	515	31	0	
9	0	0	0	0	0	512	511	520	31	0	
10	0	0	0	0	2	509	510	523	31	0	
11	0	0	0	0	0	511	509	518	31	0	
12	0	0	0	0	0	510	511	517	31	0	
13	0	0	0	0	0	511	510	513	32	0	
14	0	0	0	0	0	515	511	503	31	0	
15	0	0	0	0	0	516	512	499	32	0	
0	0	0	0	0	0	515	507	495	32	0	
1	0	0	0	0	0	517	507	511	32	0	
2	0	0	0	0	2	515	508	514	32	0	
3	0	0	0	0	0	511	508	525	32	0	
4	0	0	0	0	0	510	510	530	32	0	
5	0	0	0	0	0	516	507	509	31	0	
6	0	0	0	0	0	521	511	499	31	0	
7	0	0	0	0	0	517	511	499	31	0	
8	0	0	0	0	0	515	513	498	31	0	
9	0	0	0	0	0	512	514	501	30	0	
10	0	0	0	0	2	513	513	498	30	0	
11	0	0	0	0	0	517	512	501	31	0	
12	0	0	0	0	0	512	505	524	33	0	
13	0	0	0	0	0	515	503	519	33	0	
14	0	0	0	0	0	515	504	519	32	0	
15	0	0	0	0	0	516	509	520	32	0	
0	0	0	0	0	0	519	511	520	32	0	
1	0	0	0	0	0	514	509	516	32	0	
2	0	0	0	0	2	509	512	502	31	0	
3	0	0	0	0	0	506	510	499	30	0	
4	0	0	0	0	0	510	510	504	30	0	
5	0	0	0	0	0	510	507	512	31	0	
6	0	0	0	0	0	512	510	514	32	0	
7	0	0	0	0	0	516	513	506	32	0	
8	0	0	0	0	0	515	513	509	32	0	
9	0	0	0	0	0	512	511	513	32	0	
10	0	0	0	0	2	512	510	525	32	0	
11	0	0	0	0	0	511	510	535	32	0	
12	0	0	0	0	0	516	510	531	31	0	
13	0	0	0	0	0	515	511	515	31	0	
14	0	0	0	0	0	518	512	490	31	0	
15	0	0	0	0	0	516	510	494	31	0	
0	0	0	0	0	0	513	508	505	32	0	
1	0	0	0	0	0	517	508	500	31	0	
2	0	0	0	0	2	516	507	497	31	0	
3	0	0	0	0	0	518	505	507	31	0	
4	0	0	0	0	0	519	510	512	31	0	
5	0	0	0	0	0	514	510	515	31	0	
6	0	0	0	0	0	510	512	513	31	0	
7	0	0	0	0	0	510	510	514	32	0	
8	0	0	0	0	0	511	509	519	32	0	
9	0	0	0	0	0	512	512	520	32	0	
10	0	0	0	0	2	512	508	526	32	0	
11	0	0	0	0	0	511	508	526	33	0	
12	0	0	0	0	0	513	508	518	32	0	
13	0	0	0	0	0	512	510	515	32	0	
14	0	0	0	0	0	513	510	518	32	0	
15	0	0	0	0	0	515	510	513	32	0	
0	0	0	0	0	0	516	506	506	31	0	
1	0	0	0	0	0	514	507	510	31	0	
2	0	0	0	0	2	514	508	511	30	0	
3	0	0	0	0	0	518	511	504	30	0	
4	0	0	0	0	0	518	512	505	31	0	
5	0	0	0	0	0	515	512	499	31	0	
6	0	0	0	0	0	513	513	507	32	0	
7	0	0	0	0	0	515	512	505	32	0	
8	0	0	0	0	0	516	510	510	32	0	
9	0	0	0	0	0	512	510	519	32	0	
10	0	0	0	0	1	511	508	518	32	0	
11	0	0	0	0	0	509	508	522	32	0	
12	0	0	0	0	0	512	509	505	31	0	
13	0	0	0	0	0	513	508	496	31	0	
14	0	0	0	0	0	516	505	494	32	0	
15	0	0	0	0	0	512	508	503	32	0	
0	0	0	0	0	0	512	508	506	32	0	
1	0	0	0	0	0	511	508	515	32	0	
2	0	0	0	0	1	512	507	520	32	0	
3	0	0	0	0	0	515	505	522	32	0	
4	0	0	0	0	0	520	510	510	31	0	
5	0	0	0	0	0	519	512	509	31	0	
6	0	0	0	0	0	514	508	504	31	0	
7	0	0	0	0	0	513	508	513	31	0	
8	0	0	0	0	0	511	508	513	32	0	
9	0	0	0	0	0	513	512	514	32	0	
10	0	0	0	0	1	513	513	511	32	0	
11	0	0	0	0	0	511	512	508	31	0	
12	0	0	0	0	0	515	512	508	31	0	
13	0	0	0	0	0	511	511	513	31	0	
14	0	0	0	0	0	511	508	518	32	0	
15	0	0	0	0	0	512	508	514	32	0	
0	0	0	0	0	0	514	509	508	31	0	
1	0	0	0	0	0	515	510	505	31	0	
2	0	0	0	0	2	518	511	509	32	0	
3	0	0	0	0	0	518	510	517	32	0	
4	0	0	0	0	0	519	508	519	32	0	
5	0	0	0	0	0	520	511	517	32	0	
6	0	0	0	0	0	517	511	516	32	0	
7	0	0	0	0	0	514	511	510	32	0	
8	0	0	0	0	0	511	508	509	32	0	
9	0	0	0	0	0	508	508	514	32	0	
10	0	0	0	0	2	518	510	512	32	0	
11	0	0	0	0	0	517	509	512	31	0	
12	0	0	0	0	0	516	508	508	31	0	
13	0	0	0	0	0	505	510	512	31	0	
14	0	0	0	0	0	510	512	508	31	0	
15	0	0	0	0	0	513	512	513	31	0	
0	0	0	0	0	0	523	508	531	32	0	
1	0	0	0	0	0	533	505	545	32	0	
2	0	0	0	0	2	516	506	522	32	0	
3	0	0	0	0	0	492	506	498	32	0	
4	0	0	0	0	0	487	508	487	32	0	
5	0	0	0	0	0	510	510	476	31	0	
6	0	0	0	0	0	518	509	470	31	0	
7	0	0	0	0	0	516	508	476	30	0	
8	0	0	0	0	0	512	509	500	29	0	
9	0	0	0	0	0	515	512	511	30	0	
10	0	0	0	0	2	517	515	519	31	0	
11	0	0	0	0	0	516	513	520	31	0	
12	0	0	0	0	0	511	505	516	32	0	
13	0	0	0	0	0	512	504	518	32	0	
14	0	0	0	0	0	518	505	526	32	0	
15	0	0	0	0	0	520	508	526	32	0	
0	0	0	0	0	0	523	511	520	32	0	
1	0	0	0	0	0	516	508	515	32	0	
2	0	0	0	0	2	511	508	517	32	0	
3	0	0	0	0	0	513	511	525	32	0	
4	0	0	0	0	0	512	510	527	32	0	
5	0	0	0	0	0	512	510	519	32	0	
6	0	0	0	0	0	509	511	511	32	0	
7	0	0	0	0	0	507	512	504	31	0	
8	0	0	0	0	0	513	514	501	31	0	
9	0	0	0	0	0	513	515	503	31	0	
10	0	0	0	0	3	518	513	504	30	0	
11	0	0	0	0	0	531	511	500	31	0	
12	0	0	0	0	0	524	507	510	31	0	
13	0	0	0	0	0	508	504	528	32	0	
14	0	0	0	0	0	495	505	539	33	0	
15	0	0	0	0	0	516	508	515	32	0	
0	0	0	0	0	0	524	512	507	31	0	
1	0	0	0	0	0	520	511	501	31	0	
2	0	0	0	0	2	519	508	491	32	0	
3	0	0	0	0	0	519	505	486	31	0	
4	0	0	0	0	0	516	501	490	31	0	
5	0	0	0	0	0	515	505	500	31	0	
6	0	0	0	0	0	516	511	505	31	0	
7	0	0	0	0	0	512	517	515	32	0	
8	0	0	0	0	0	505	515	523	32	0	
9	0	0	0	0	0	503	512	523	32	0	
10	0	0	0	0	2	509	512	513	32	0	
11	0	0	0	0	0	510	510	513	31	0	
12	0	0	0	0	0	511	508	517	31	0	
13	0	0	0	0	0	516	508	522	32	0	
14	0	0	0	0	0	515	508	530	32	0	
15	0	0	0	0	0	512	507	518	32	0	
0	0	0	0	0	0	516	506	520	32	0	
1	0	0	0	0	0	515	505	525	32	0	
2	0	0	0	0	2	519	511	510	32	0	
3	0	0	0	0	0	511	510	522	32	0	
4	0	0	0	0	0	502	508	520	32	0	
5	0	0	0	0	0	504	510	511	32	0	
6	0	0	0	0	0	515	515	497	31	0	
7	0	0	0	0	0	525	511	492	31	0	
8	0	0	0	0	0	525	510	491	31	0	
9	0	0	0	0	0	525	513	492	31	0	
10	0	0	0	0	2	524	511	497	31	0	
11	0	0	0	0	0	518	510	505	31	0	
12	0	0	0	0	0	513	506	514	31	0	
13	0	0	0	0	0	507	508	513	32	0	
14	0	0	0	0	0	506	511	510	32	0	
15	0	0	0	0	0	509	512	506	32	0	
0	0	0	0	0	0	509	510	508	32	0	
1	0	0	0	0	0	507	507	515	31	0	
2	0	0	0	0	2	508	506	521	31	0	
3	0	0	0	0	0	517	508	514	31	0	
4	0	0	0	0	0	525	513	507	31	0	
5	0	0	0	0	0	524	514	507	31	0	
6	0	0	0	0	0	521	515	512	31	0	
7	0	0	0	0	0	520	517	510	31	0	
8	0	0	0	0	0	519	515	520	32	0	
9	0	0	0	0	0	515	515	527	32	0	
10	0	0	0	0	1	512	508	521	32	0	
11	0	0	0	0	0	500	506	525	32	0	
12	0	0	0	0	0	496	504	519	32	0	
13	0	0	0	0	0	502	505	510	32	0	
14	0	0	0	0	0	514	510	499	32	0	
15	0	0	0	0	0	518	511	496	32	0	
0	0	0	0	0	0	519	508	499	32	0	
1	0	0	0	0	0	516	512	499	31	0	
2	0	0	0	0	1	524	515	504	31	0	
3	0	0	0	0	0	521	511	504	31	0	
4	0	0	0	0	0	504	504	517	32	0	
5	0	0	0	0	0	508	502	525	32	0	
6	0	0	0	0	0	513	507	521	32	0	
7	0	0	0	0	0	516	510	516	32	0	
8	0	0	0	0	0	519	510	515	31	0	
9	0	0	0	0	0	516	511	515	31	0	
10	0	0	0	0	2	513	511	509	31	0	
11	0	0	0	0	0	512	510	508	31	0	
12	0	0	0	0	0	510	508	507	31	0	
13	0	0	0	0	0	508	508	505	32	0	
14	0	0	0	0	0	510	506	500	32	0	
15	0	0	0	0	0	511	506	512	32	0	
0	0	0	0	0	0	515	504	525	32	0	
1	0	0	0	0	0	513	503	543	33	0	
2	0	0	0	0	2	513	508	537	32	0	
3	0	0	0	0	0	511	508	525	32	0	
4	0	0	0	0	0	512	512	508	32	0	
5	0	0	0	0	0	517	516	488	31	0	
6	0	0	0	0	0	517	515	483	30	0	
7	0	0	0	0	0	514	515	487	31	0	
8	0	0	0	0	0	516	516	489	31	0	
9	0	0	0	0	0	514	513	496	31	0	
10	0	0	0	0	2	513	505	503	31	0	
11	0	0	0	0	0	515	500	506	31	0	
12	0	0	0	0	0	518	505	512	31	0	
13	0	0	0	0	0	519	509	514	32	0	
14	0	0	0	0	0	516	510	516	32	0	
15	0	0	0	0	0	513	508	517	32	0	
0	0	0	0	0	0	512	510	523	32	0	
1	0	0	0	0	0	511	508	521	32	0	
2	0	0	0	0	2	507	511	518	31	0	
3	0	0	0	0	0	511	512	513	31	0	
4	0	0	0	0	0	511	510	511	31	0	
5	0	0	0	0	0	510	509	516	31	0	
6	0	0	0	0	0	513	509	515	32	0	
7	0	0	0	0	0	511	508	515	32	0	
8	0	0	0	0	0	509	509	515	32	0	
9	0	0	0	0	0	512	508	514	32	0	
10	0	0	0	0	2	515	512	512	31	0	
11	0	0	0	0	0	521	511	511	31	0	
12	0	0	0	0	0	523	510	512	31	0	
13	0	0	0	0	0	521	513	510	31	0	
14	0	0	0	0	0	519	512	512	32	0	
15	0	0	0	0	0	516	512	515	32	0	
0	0	0	0	0	0	516	511	509	32	0	
1	0	0	0	0	0	515	511	503	31	0	
2	0	0	0	0	2	510	509	505	31	0	
3	0	0	0	0	0	509	506	510	32	0	
4	0	0	0	0	0	508	510	516	31	0	
5	0	0	0	0	0	511	510	512	31	0	
6	0	0	0	0	0	513	508	509	31	0	
7	0	0	0	0	0	512	509	508	32	0	
8	0	0	0	0	0	511	510	507	31	0	
9	0	0	0	0	0	513	509	522	32	0	
10	0	0	0	0	2	514	510	519	32	0	
11	0	0	0	0	0	515	509	513	31	0	
12	0	0	0	0	0	513	508	503	31	0	
13	0	0	0	0	0	515	508	503	31	0	
14	0	0	0	0	0	514	510	504	31	0	
15	0	0	0	0	0	508	507	514	32	0	
0	0	0	0	0	0	511	506	517	32	0	
1	0	0	0	0	0	517	511	513	32	0	
2	0	0	0	0	2	520	512	512	31	0	
3	0	0	0	0	0	522	513	504	31	0	
4	0	0	0	0	0	523	514	505	31	0	
5	0	0	0	0	0	519	515	507	31	0	
6	0	0	0	0	0	515	510	506	31	0	
7	0	0	0	0	0	509	507	510	31	0	
8	0	0	0	0	0	505	505	515	32	0	
9	0	0	0	0	0	505	506	518	32	0	
10	0	0	0	0	2	512	508	514	32	0	
11	0	0	0	0	0	510	510	512	32	0	
12	0	0	0	0	0	512	510	513	32	0	
13	0	0	0	0	0	516	508	512	32	0	
14	0	0	0	0	0	514	509	516	32	0	
15	0	0	0	0	0	508	506	522	32	0	
0	0	0	0	0	0	516	510	519	31	0	
1	0	0	0	0	0	519	513	512	31	0	
2	0	0	0	0	2	519	513	509	31	0	
3	0	0	0	0	0	520	513	499	31	0	
4	0	0	0	0	0	515	513	499	31	0	
5	0	0	0	0	0	512	510	499	32	0	
6	0	0	0	0	0	510	508	503	32	0	
7	0	0	0	0	0	513	508	507	32	0	
8	0	0	0	0	0	512	507	511	32	0	
9	0	0	0	0	0	514	506	508	32	0	
10	0	0	0	0	2	513	505	513	32	0	
11	0	0	0	0	0	512	505	513	32	0	
12	0	0	0	0	0	514	507	516	32	0	
13	0	0	0	0	0	516	508	521	32	0	
14	0	0	0	0	0	515	511	518	32	0	
15	0	0	0	0	0	516	512	515	32	0	
0	0	0	0	0	0	512	509	517	32	0	
1	0	0	0	0	0	512	509	513	32	0	
2	0	0	0	0	1	511	511	512	32	0	
3	0	0	0	0	0	513	511	511	32	0	
4	0	0	0	0	0	515	511	513	32	0	
5	0	0	0	0	0	517	509	511	32	0	
6	0	0	0	0	0	516	510	511	32	0	
7	0	0	0	0	0	513	510	520	31	0	
8	0	0	0	0	0	512	510	519	31	0	
9	0	0	0	0	0	511	512	517	32	0	
10	0	0	0	0	1	514	510	498	32	0	
11	0	0	0	0	0	514	511	496	32	0	
12	0	0	0	0	0	512	512	502	32	0	
13	0	0	0	0	0	513	510	505	31	0	
14	0	0	0	0	0	516	512	508	31	0	
15	0	0	0	0	0	514	511	508	31	0	
0	0	0	0	0	0	514	510	510	31	0	
1	0	0	0	0	0	514	514	509	31	0	
2	0	0	0	0	1	514	510	510	31	0	
3	0	0	0	0	0	513	510	511	31	0	
4	0	0	0	0	0	511	508	516	31	0	
5	0	0	0	0	0	512	507	519	32	0	
6	0	0	0	0	0	514	508	518	32	0	
7	0	0	0	0	0	516	508	518	31	0	
8	0	0	0	0	0	519	510	505	32	0	
9	0	0	0	0	0	518	508	503	32	0	
10	0	0	0	0	2	516	508	505	32	0	
11	0	0	0	0	0	514	507	508	31	0	
12	0	0	0	0	0	516	508	506	31	0	
13	0	0	0	0	0	515	512	508	31	0	
14	0	0	0	0	0	514	508	510	32	0	
15	0	0	0	0	0	511	510	514	32	0	
0	0	0	0	0	0	511	510	517	32	0	
1	0	0	0	0	0	515	512	515	31	0	
2	0	0	0	0	2	513	511	516	32	0	
3	0	0	0	0	0	514	511	509	32	0	
4	0	0	0	0	0	515	511	510	32	0	
5	0	0	0	0	0	513	508	515	31	0	
6	0	0	0	0	0	513	507	518	31	0	
7	0	0	0	0	0	516	509	514	32	0	
8	0	0	0	0	0	515	506	516	32	0	
9	0	0	0	0	0	513	506	517	32	0	
10	0	0	0	0	2	514	508	514	32	0	
11	0	0	0	0	0	511	508	512	32	0	
12	0	0	0	0	0	511	510	514	32	0	
13	0	0	0	0	0	512	511	510	32	0	
14	0	0	0	0	0	515	510	507	31	0	
15	0	0	0	0	0	514	511	510	31	0	
0	0	0	0	0	0	516	514	518	31	0	
1	0	0	0	0	0	515	512	519	31	0	
2	0	0	0	0	2	515	511	513	31	0	
3	0	0	0	0	0	515	510	500	31	0	
4	0	0	0	0	0	515	509	491	32	0	
5	0	0	0	0	0	514	508	490	32	0	
6	0	0	0	0	0	511	508	497	31	0	
7	0	0	0	0	0	511	508	500	31	0	
8	0	0	0	0	0	511	510	512	31	0	
9	0	0	0	0	0	512	511	526	32	0	
10	0	0	0	0	2	511	508	531	32	0	
11	0	0	0	0	0	512	508	530	32	0	
12	0	0	0	0	0	514	508	523	32	0	
13	0	0	0	0	0	514	509	518	31	0	
14	0	0	0	0	0	517	508	510	31	0	
15	0	0	0	0	0	516	511	502	32	0	
0	0	0	0	0	0	519	512	494	31	0	
1	0	0	0	0	0	519	511	495	32	0	
2	0	0	0	0	2	514	512	502	31	0	
3	0	0	0	0	0	516	510	519	31	0	
4	0	0	0	0	0	514	510	522	31	0	
5	0	0	0	0	0	512	505	512	31	0	
6	0	0	0	0	0	518	509	503	31	0	
7	0	0	0	0	0	514	509	506	32	0	
8	0	0	0	0	0	512	512	508	32	0	
9	0	0	0	0	0	511	511	515	32	0	
10	0	0	0	0	2	515	509	519	32	0	
11	0	0	0	0	0	515	508	511	32	0	
12	0	0	0	0	0	514	510	508	32	0	
13	0	0	0	0	0	511	512	512	32	0	
14	0	0	0	0	0	511	511	510	31	0	
15	0	0	0	0	0	512	512	505	31	0	
0	0	0	0	0	0	509	511	508	31	0	
1	0	0	0	0	0	516	511	508	31	0	
2	0	0	0	0	2	513	509	512	31	0	
3	0	0	0	0	0	511	504	512	32	0	
4	0	0	0	0	0	513	507	515	32	0	
5	0	0	0	0	0	513	508	523	32	0	
6	0	0	0	0	0	512	511	520	32	0	
7	0	0	0	0	0	512	509	524	32	0	
8	0	0	0	0	0	511	506	531	32	0	
9	0	0	0	0	0	512	506	524	32	0	
10	0	0	0	0	2	521	507	498	32	0	
11	0	0	0	0	0	522	507	492	31	0	
12	0	0	0	0	0	515	510	492	31	0	
13	0	0	0	0	0	517	513	496	30	0	
14	0	0	0	0	0	519	512	504	30	0	
15	0	0	0	0	0	515	510	524	31	0	
0	0	0	0	0	0	513	509	531	31	0	
1	0	0	0	0	0	514	508	517	32	0	
2	0	0	0	0	2	513	509	503	31	0	
3	0	0	0	0	0	514	508	500	31	0	
4	0	0	0	0	0	511	505	513	32	0	
5	0	0	0	0	0	508	509	503	32	0	
6	0	0	0	0	0	508	510	500	32	0	
7	0	0	0	0	0	513	511	504	32	0	
8	0	0	0	0	0	514	513	511	32	0	
9	0	0	0	0	0	515	511	517	32	0	
10	0	0	0	0	2	515	513	521	32	0	
11	0	0	0	0	0	519	513	510	32	0	
12	0	0	0	0	0	515	510	507	32	0	
13	0	0	0	0	0	513	508	512	32	0	
14	0	0	0	0	0	513	508	519	32	0	
15	0	0	0	0	0	514	508	534	32	0	
0	0	0	0	0	0	513	505	539	32	0	
1	0	0	0	0	0	512	508	540	32	0	
2	0	0	0	0	0	515	508	511	31	0	
3	0	0	0	0	0	515	515	481	30	0	
4	0	0	0	0	0	514	510	484	32	0	
5	0	0	0	0	0	513	507	483	32	0	
6	0	0	0	0	0	511	508	489	32	0	
7	0	0	0	0	0	513	508	502	31	0	
8	0	0	0	0	0	513	511	507	31	0	
9	0	0	0	0	0	511	508	523	31	0	
10	0	0	0	0	1	513	511	519	32	0	
11	0	0	0	0	0	512	511	516	32	0	
12	0	0	0	0	0	515	509	510	32	0	
13	0	0	0	0	0	515	510	517	32	0	
14	0	0	0	0	0	517	511	527	32	0	
15	0	0	0	0	0	511	508	535	32	0	
0	0	0	0	0	0	513	508	539	31	0	
1	0	0	0	0	0	513	511	523	31	0	
2	0	0	0	0	1	514	511	497	31	0	
3	0	0	0	0	0	512	510	496	31	0	
4	0	0	0	0	0	513	506	492	32	0	
5	0	0	0	0	0	515	507	492	32	0	
6	0	0	0	0	0	519	509	490	31	0	
7	0	0	0	0	0	520	508	501	31	0	
8	0	0	0	0	0	520	509	513	31	0	
9	0	0	0	0	0	514	511	520	31	0	
10	0	0	0	0	2	511	511	518	31	0	
11	0	0	0	0	0	511	508	523	32	0	
12	0	0	0	0	0	510	507	531	32	0	
13	0	0	0	0	0	510	508	526	32	0	
14	0	0	0	0	0	513	507	522	32	0	
15	0	0	0	0	0	512	510	511	32	0	
0	0	0	0	0	0	516	509	513	32	0	
1	0	0	0	0	0	514	513	514	32	0	
2	0	0	0	0	2	513	514	506	31	0	
3	0	0	0	0	0	515	511	499	31	0	
4	0	0	0	0	0	519	512	493	31	0	
5	0	0	0	0	0	516	514	500	30	0	
6	0	0	0	0	0	514	509	519	31	0	
7	0	0	0	0	0	511	505	511	32	0	
8	0	0	0	0	0	514	508	501	32	0	
9	0	0	0	0	0	513	508	500	32	0	
10	0	0	0	0	2	509	508	504	32	0	
11	0	0	0	0	0	511	510	512	31	0	
12	0	0	0	0	0	513	509	519	31	0	
13	0	0	0	0	0	512	508	527	32	0	
14	0	0	0	0	0	515	510	524	32	0	
15	0	0	0	0	0	512	509	518	32	0	
0	0	0	0	0	0	512	511	516	32	0	
1	0	0	0	0	0	513	511	512	32	0	
2	0	0	0	0	2	515	512	505	31	0	
3	0	0	0	0	0	516	510	509	31	0	
4	0	0	0	0	0	515	508	517	31	0	
5	0	0	0	0	0	515	510	511	31	0	
6	0	0	0	0	0	517	510	498	31	0	
7	0	0	0	0	0	519	510	498	32	0	
8	0	0	0	0	0	514	509	505	32	0	
9	0	0	0	0	0	515	508	506	32	0	
10	0	0	0	0	2	511	510	506	32	0	
11	0	0	0	0	0	511	511	500	31	0	
12	0	0	0	0	0	518	513	502	31	0	
13	0	0	0	0	0	514	510	508	32	0	
14	0	0	0	0	0	514	509	511	32	0	
15	0	0	0	0	0	512	509	518	32	0	
0	0	0	0	0	0	511	510	519	31	0	
1	0	0	0	0	0	511	510	523	32	0	
2	0	0	0	0	2	511	510	530	32	0	
3	0	0	0	0	0	513	511	527	32	0	
4	0	0	0	0	0	514	510	518	31	0	
5	0	0	0	0	0	515	510	510	31	0	
6	0	0	0	0	0	515	509	505	31	0	
7	0	0	0	0	0	517	510	502	31	0	
8	0	0	0	0	0	515	509	501	32	0	
9	0	0	0	0	0	518	508	503	32	0	
10	0	0	0	0	2	515	508	507	32	0	
11	0	0	0	0	0	512	509	514	32	0	
12	0	0	0	0	0	509	511	518	31	0	
13	0	0	0	0	0	510	511	518	32	0	
14	0	0	0	0	0	512	512	516	32	0	
15	0	0	0	0	0	514	510	513	32	0	
0	0	0	0	0	0	512	511	512	32	0	
1	0	0	0	0	0	515	509	512	32	0	
2	0	0	0	0	2	512	507	513	32	0	
3	0	0	0	0	0	514	504	514	32	0	
4	0	0	0	0	0	512	509	508	31	0	
5	0	0	0	0	0	514	510	509	31	0	
6	0	0	0	0	0	513	508	514	31	0	
7	0	0	0	0	0	514	511	521	31	0	
8	0	0	0	0	0	515	512	518	31	0	
9	0	0	0	0	0	512	511	505	31	0	
10	0	0	0	0	2	514	509	499	31	0	
11	0	0	0	0	0	514	507	504	31	0	
12	0	0	0	0	0	515	507	499	31	0	
13	0	0	0	0	0	510	508	504	32	0	
14	0	0	0	0	0	511	509	508	32	0	
15	0	0	0	0	0	508	513	512	32	0	
0	0	0	0	0	0	511	516	518	32	0	
1	0	0	0	0	0	514	511	523	32	0	
2	0	0	0	0	3	514	511	523	32	0	
3	0	0	0	0	0	512	513	520	31	0	
4	0	0	0	0	0	516	508	519	32	0	
5	0	0	0	0	0	524	505	510	32	0	
6	0	0	0	0	0	522	506	510	32	0	
7	0	0	0	0	0	519	510	505	32	0	
8	0	0	0	0	0	515	510	503	32	0	
9	0	0	0	0	0	510	505	499	31	0	
10	0	0	0	0	1	509	503	497	31	0	
11	0	0	0	0	0	509	503	499	31	0	
12	0	0	0	0	0	510	505	504	31	0	
13	0	0	0	0	0	511	504	508	31	0	
14	0	0	0	0	0	516	511	509	31	0	
15	0	0	0	0	0	516	511	511	31	0	
0	0	0	0	0	0	515	512	515	32	0	
1	0	0	0	0	0	517	515	517	32	0	
2	0	0	0	0	1	518	513	516	32	0	
3	0	0	0	0	0	519	511	513	32	0	
4	0	0	0	0	0	515	511	511	32	0	
5	0	0	0	0	0	516	514	510	32	0	
6	0	0	0	0	0	515	513	512	32	0	
7	0	0	0	0	0	512	515	519	31	0	
8	0	0	0	0	0	513	517	519	31	0	
9	0	0	0	0	0	511	512	523	32	0	
10	0	0	0	0	1	507	507	531	32	0	
11	0	0	0	0	0	509	502	528	32	0	
12	0	0	0	0	0	513	500	517	32	0	
13	0	0	0	0	0	512	496	509	32	0	
14	0	0	0	0	0	511	502	499	31	0	
15	0	0	0	0	0	508	512	495	31	0	
0	0	0	0	0	0	511	520	490	31	0	
1	0	0	0	0	0	516	521	485	31	0	
2	0	0	0	0	2	513	519	493	31	0	
3	0	0	0	0	0	518	517	499	31	0	
4	0	0	0	0	0	518	512	507	31	0	
5	0	0	0	0	0	512	501	518	32	0	
6	0	0	0	0	0	515	498	519	32	0	
7	0	0	0	0	0	511	504	524	32	0	
8	0	0	0	0	0	509	499	521	32	0	
9	0	0	0	0	0	516	502	527	32	0	
10	0	0	0	0	2	515	504	528	31	0	
11	0	0	0	0	0	514	507	522	31	0	
12	0	0	0	0	0	515	506	510	32	0	
13	0	0	0	0	0	520	507	495	32	0	
14	0	0	0	0	0	516	516	495	31	0	
15	0	0	0	0	0	511	517	500	31	0	
0	0	0	0	0	0	509	520	504	31	0	
1	0	0	0	0	0	514	522	506	31	0	
2	0	0	0	0	2	519	523	504	31	0	
3	0	0	0	0	0	513	520	510	31	0	
4	0	0	0	0	0	511	514	518	32	0	
5	0	0	0	0	0	508	506	523	32	0	
6	0	0	0	0	0	512	499	522	32	0	
7	0	0	0	0	0	516	493	514	32	0	
8	0	0	0	0	0	522	495	511	31	0	
9	0	0	0	0	0	520	500	515	31	0	
10	0	0	0	0	2	516	505	522	32	0	
11	0	0	0	0	0	508	512	522	32	0	
12	0	0	0	0	0	512	516	517	32	0	
13	0	0	0	0	0	516	513	513	32	0	
14	0	0	0	0	0	517	511	507	32	0	
15	0	0	0	0	0	519	515	504	32	0	
0	0	0	0	0	0	515	513	513	32	0	
1	0	0	0	0	0	518	512	513	32	0	
2	0	0	0	0	2	515	511	512	31	0	
3	0	0	0	0	0	510	515	506	30	0	
4	0	0	0	0	0	513	519	501	30	0	
5	0	0	0	0	0	510	516	501	32	0	
6	0	0	0	0	0	509	515	499	32	0	
7	0	0	0	0	0	512	508	504	32	0	
8	0	0	0	0	0	509	505	511	31	0	
9	0	0	0	0	0	511	509	514	31	0	
10	0	0	0	0	2	512	508	515	31	0	
11	0	0	0	0	0	513	504	519	31	0	
12	0	0	0	0	0	512	506	520	32	0	
13	0	0	0	0	0	514	501	526	32	0	
14	0	0	0	0	0	515	500	519	32	0	
15	0	0	0	0	0	511	502	519	32	0	
0	0	0	0	0	0	515	502	512	32	0	
1	0	0	0	0	0	511	500	506	32	0	
2	0	0	0	0	2	510	511	499	32	0	
3	0	0	0	0	0	513	518	489	31	0	
4	0	0	0	0	0	518	522	491	31	0	
5	0	0	0	0	0	518	519	502	32	0	
6	0	0	0	0	0	519	512	514	31	0	
7	0	0	0	0	0	522	511	515	31	0	
8	0	0	0	0	0	520	511	519	31	0	
9	0	0	0	0	0	516	509	514	31	0	
10	0	0	0	0	2	513	511	519	32	0	
11	0	0	0	0	0	515	514	514	32	0	
12	0	0	0	0	0	521	515	517	32	0	
13	0	0	0	0	0	524	519	519	31	0	
14	0	0	0	0	0	519	515	514	31	0	
15	0	0	0	0	0	511	509	506	31	0	
0	0	0	0	0	0	501	511	508	31	0	
1	0	0	0	0	0	502	508	508	31	0	
2	0	0	0	0	2	509	510	506	31	0	
3	0	0	0	0	0	508	508	505	31	0	
4	0	0	0	0	0	508	503	504	32	0	
5	0	0	0	0	0	509	500	511	32	0	
6	0	0	0	0	0	513	499	518	32	0	
7	0	0	0	0	0	515	499	518	32	0	
8	0	0	0	0	0	515	501	520	32	0	
9	0	0	0	0	0	516	507	518	32	0	
10	0	0	0	0	2	521	512	511	31	0	
11	0	0	0	0	0	516	520	508	31	0	
12	0	0	0	0	0	516	519	503	31	0	
13	0	0	0	0	0	518	512	504	31	0	
14	0	0	0	0	0	518	508	508	31	0	
15	0	0	0	0	0	519	512	508	31	0	
0	0	0	0	0	0	513	510	510	32	0	
1	0	0	0	0	0	507	512	519	32	0	
2	0	0	0	0	2	510	511	523	32	0	
3	0	0	0	0	0	510	513	519	32	0	
4	0	0	0	0	0	515	517	514	32	0	
5	0	0	0	0	0	512	520	516	32	0	
6	0	0	0	0	0	512	516	516	31	0	
7	0	0	0	0	0	513	506	525	32	0	
8	0	0	0	0	0	512	504	515	32	0	
9	0	0	0	0	0	512	506	504	32	0	
10	0	0	0	0	1	513	505	502	32	0	
11	0	0	0	0	0	518	506	501	32	0	
12	0	0	0	0	0	517	504	500	32	0	
13	0	0	0	0	0	519	502	494	32	0	
14	0	0	0	0	0	519	504	498	31	0	
15	0	0	0	0	0	523	506	504	31	0	
0	0	0	0	0	0	519	505	509	31	0	
1	0	0	0	0	0	513	504	517	32	0	
2	0	0	0	0	1	508	510	519	32	0	
3	0	0	0	0	0	505	511	515	32	0	
4	0	0	0	0	0	507	514	510	31	0	
5	0	0	0	0	0	512	515	501	31	0	
6	0	0	0	0	0	513	514	508	31	0	
7	0	0	0	0	0	507	508	513	31	0	
8	0	0	0	0	0	507	508	511	31	0	
9	0	0	0	0	0	510	508	510	31	0	
10	0	0	0	0	1	519	515	512	31	0	
11	0	0	0	0	0	518	516	512	31	0	
12	0	0	0	0	0	513	513	510	31	0	
13	0	0	0	0	0	512	509	511	31	0	
14	0	0	0	0	0	508	507	514	32	0	
15	0	0	0	0	0	506	507	512	32	0	
0	0	0	0	0	0	507	505	515	32	0	
1	0	0	0	0	0	507	504	515	32	0	
2	0	0	0	0	2	510	508	516	32	0	
3	0	0	0	0	0	517	509	515	32	0	
4	0	0	0	0	0	520	516	517	32	0	
5	0	0	0	0	0	526	519	519	32	0	
6	0	0	0	0	0	527	517	517	32	0	
7	0	0	0	0	0	524	513	514	32	0	
8	0	0	0	0	0	520	515	511	32	0	
9	0	0	0	0	0	520	511	514	32	0	
10	0	0	0	0	2	519	505	518	32	0	
11	0	0	0	0	0	517	505	515	32	0	
12	0	0	0	0	0	515	507	506	31	0	
13	0	0	0	0	0	514	508	508	32	0	
14	0	0	0	0	0	511	505	506	32	0	
15	0	0	0	0	0	509	510	504	31	0	
0	0	0	0	0	0	508	510	504	32	0	
1	0	0	0	0	0	509	511	508	32	0	
2	0	0	0	0	2	506	510	515	32	0	
3	0	0	0	0	0	511	514	516	32	0	
4	0	0	0	0	0	516	511	513	33	0	
5	0	0	0	0	0	515	512	512	33	0	
6	0	0	0	0	0	519	511	512	33	0	
7	0	0	0	0	0	519	504	509	33	0	
8	0	0	0	0	0	512	505	508	33	0	
9	0	0	0	0	0	508	510	513	33	0	
10	0	0	0	0	2	509	511	510	32	0	
11	0	0	0	0	0	509	512	511	32	0	
12	0	0	0	0	0	508	510	513	31	0	
13	0	0	0	0	0	509	508	511	31	0	
14	0	0	0	0	0	507	507	510	31	0	
15	0	0	0	0	0	512	506	511	31	0	
0	0	0	0	0	0	517	510	506	31	0	
1	0	0	0	0	0	521	511	507	31	0	
2	0	0	0	0	2	521	511	513	31	0	
3	0	0	0	0	0	522	511	510	31	0	
4	0	0	0	0	0	517	514	511	31	0	
5	0	0	0	0	0	519	512	512	31	0	
6	0	0	0	0	0	518	509	512	30	0	
7	0	0	0	0	0	516	515	513	31	0	
8	0	0	0	0	0	514	513	515	31	0	
9	0	0	0	0	0	515	507	511	31	0	
10	0	0	0	0	2	513	507	511	31	0	
11	0	0	0	0	0	509	506	508	31	0	
12	0	0	0	0	0	508	507	508	31	0	
13	0	0	0	0	0	510	508	511	31	0	
14	0	0	0	0	0	511	504	512	31	0	
15	0	0	0	0	0	507	503	513	31	0	
0	0	0	0	0	0	512	502	512	31	0	
1	0	0	0	0	0	516	504	510	31	0	
2	0	0	0	0	2	517	505	508	31	0	
3	0	0	0	0	0	510	507	511	31	0	
4	0	0	0	0	0	504	510	513	31	0	
5	0	0	0	0	0	506	510	509	31	0	
6	0	0	0	0	0	512	515	511	31	0	
7	0	0	0	0	0	518	520	513	31	0	
8	0	0	0	0	0	526	516	511	31	0	
9	0	0	0	0	0	528	513	508	31	0	
10	0	0	0	0	2	527	518	509	31	0	
11	0	0	0	0	0	519	524	513	31	0	
12	0	0	0	0	0	520	523	516	31	0	
13	0	0	0	0	0	518	515	515	31	0	
14	0	0	0	0	0	511	508	511	31	0	
15	0	0	0	0	0	508	501	509	32	0	
0	0	0	0	0	0	505	497	509	32	0	
1	0	0	0	0	0	504	498	507	31	0	
2	0	0	0	0	2	511	502	507	32	0	
3	0	0	0	0	0	514	503	508	32	0	
4	0	0	0	0	0	513	500	508	32	0	
5	0	0	0	0	0	511	501	513	32	0	
6	0	0	0	0	0	510	503	517	31	0	
7	0	0	0	0	0	507	508	515	31	0	
8	0	0	0	0	0	503	514	515	32	0	
9	0	0	0	0	0	509	518	512	31	0	
10	0	0	0	0	2	518	518	512	32	0	
11	0	0	0	0	0	524	520	514	31	0	
12	0	0	0	0	0	527	518	509	32	0	
13	0	0	0	0	0	521	523	505	31	0	
14	0	0	0	0	0	515	520	511	31	0	
15	0	0	0	0	0	514	513	515	31	0	
0	0	0	0	0	0	512	505	515	32	0	
1	0	0	0	0	0	507	499	519	32	0	
2	0	0	0	0	2	511	500	510	32	0	
3	0	0	0	0	0	509	504	509	31	0	
4	0	0	0	0	0	507	508	511	31	0	
5	0	0	0	0	0	514	510	508	31	0	
6	0	0	0	0	0	518	509	510	31	0	
7	0	0	0	0	0	516	508	512	31	0	
8	0	0	0	0	0	518	509	512	32	0	
9	0	0	0	0	0	516	512	511	31	0	
10	0	0	0	0	1	513	510	508	32	0	
11	0	0	0	0	0	510	509	513	32	0	
12	0	0	0	0	0	510	504	521	32	0	
13	0	0	0	0	0	505	508	525	32	0	
14	0	0	0	0	0	508	505	515	31	0	
15	0	0	0	0	0	508	513	502	31	0	
0	0	0	0	0	0	511	519	506	31	0	
1	0	0	0	0	0	516	512	508	31	0	
2	0	0	0	0	1	520	506	505	31	0	
3	0	0	0	0	0	526	506	495	31	0	
4	0	0	0	0	0	522	504	492	31	0	
5	0	0	0	0	0	512	507	506	31	0	
6	0	0	0	0	0	508	513	513	32	0	
7	0	0	0	0	0	514	522	513	32	0	
8	0	0	0	0	0	509	519	515	32	0	
9	0	0	0	0	0	506	502	518	32	0	
10	0	0	0	0	1	508	490	519	32	0	
11	0	0	0	0	0	517	499	519	32	0	
12	0	0	0	0	0	520	507	515	32	0	
13	0	0	0	0	0	515	509	514	32	0	
14	0	0	0	0	0	510	510	511	32	0	
15	0	0	0	0	0	511	508	506	31	0	
0	0	0	0	0	0	514	517	510	31	0	
1	0	0	0	0	0	518	517	510	31	0	
2	0	0	0	0	2	525	510	508	31	0	
3	0	0	0	0	0	524	507	507	31	0	
4	0	0	0	0	0	522	513	504	31	0	
5	0	0	0	0	0	519	515	505	31	0	
6	0	0	0	0	0	511	516	507	31	0	
7	0	0	0	0	0	502	508	512	32	0	
8	0	0	0	0	0	498	504	516	32	0	
9	0	0	0	0	0	507	509	518	32	0	
10	0	0	0	0	2	517	513	518	32	0	
11	0	0	0	0	0	524	518	518	31	0	
12	0	0	0	0	0	525	509	516	31	0	
13	0	0	0	0	0	520	507	520	31	0	
14	0	0	0	0	0	515	510	524	31	0	
15	0	0	0	0	0	516	504	522	31	0	
0	0	0	0	0	0	519	508	507	31	0	
1	0	0	0	0	0	518	508	501	32	0	
2	0	0	0	0	2	512	512	496	32	0	
3	0	0	0	0	0	508	511	500	32	0	
4	0	0	0	0	0	506	508	503	32	0	
5	0	0	0	0	0	508	511	502	32	0	
6	0	0	0	0	0	505	509	506	31	0	
7	0	0	0	0	0	506	508	510	31	0	
8	0	0	0	0	0	510	508	515	31	0	
9	0	0	0	0	0	514	511	520	31	0	
10	0	0	0	0	2	511	507	508	31	0	
11	0	0	0	0	0	511	502	506	31	0	
12	0	0	0	0	0	512	500	511	32	0	
13	0	0	0	0	0	514	507	507	32	0	
14	0	0	0	0	0	519	509	505	32	0	
15	0	0	0	0	0	519	511	504	31	0	
0	0	0	0	0	0	523	515	506	31	0	
1	0	0	0	0	0	520	519	512	31	0	
2	0	0	0	0	2	515	513	510	32	0	
3	0	0	0	0	0	513	498	516	32	0	
4	0	0	0	0	0	510	504	518	32	0	
5	0	0	0	0	0	515	508	519	32	0	
6	0	0	0	0	0	515	511	523	32	0	
7	0	0	0	0	0	513	511	519	32	0	
8	0	0	0	0	0	506	514	515	32	0	
9	0	0	0	0	0	506	515	516	31	0	
10	0	0	0	0	2	508	513	516	31	0	
11	0	0	0	0	0	513	515	511	31	0	
12	0	0	0	0	0	514	515	508	31	0	
13	0	0	0	0	0	513	515	504	31	0	
14	0	0	0	0	0	515	509	501	31	0	
15	0	0	0	0	0	515	507	504	31	0	
0	0	0	0	0	0	519	503	508	31	0	
1	0	0	0	0	0	519	505	516	31	0	
2	0	0	0	0	2	515	507	523	32	0	
3	0	0	0	0	0	517	509	523	32	0	
4	0	0	0	0	0	521	515	518	32	0	
5	0	0	0	0	0	519	520	516	32	0	
6	0	0	0	0	0	516	515	508	32	0	
7	0	0	0	0	0	513	512	505	32	0	
8	0	0	0	0	0	509	508	503	31	0	
9	0	0	0	0	0	511	503	508	32	0	
10	0	0	0	0	2	506	503	508	31	0	
11	0	0	0	0	0	508	504	507	31	0	
12	0	0	0	0	0	513	507	508	31	0	
13	0	0	0	0	0	512	511	503	31	0	
14	0	0	0	0	0	513	512	510	32	0	
15	0	0	0	0	0	510	513	527	32	0	
0	0	0	0	0	0	512	509	519	32	0	
1	0	0	0	0	0	515	508	517	32	0	
2	0	0	0	0	2	519	500	515	32	0	
3	0	0	0	0	0	524	505	505	31	0	
4	0	0	0	0	0	522	512	512	31	0	
5	0	0	0	0	0	523	513	507	31	0	
6	0	0	0	0	0	524	511	503	31	0	
7	0	0	0	0	0	515	517	507	32	0	
8	0	0	0	0	0	508	515	503	31	0	
9	0	0	0	0	0	504	501	497	31	0	
10	0	0	0	0	2	506	500	499	31	0	
11	0	0	0	0	0	511	494	500	31	0	
12	0	0	0	0	0	512	504	505	32	0	
13	0	0	0	0	0	510	514	500	32	0	
14	0	0	0	0	0	511	526	510	32	0	
15	0	0	0	0	0	512	525	519	32	0	
0	0	0	0	0	0	520	519	518	32	0	
1	0	0	0	0	0	530	507	515	32	0	
2	0	0	0	0	0	522	510	520	32	0	
3	0	0	0	0	0	512	513	528	32	0	
4	0	0	0	0	0	515	502	527	31	0	
5	0	0	0	0	0	511	492	517	31	0	
6	0	0	0	0	0	506	498	512	31	0	
7	0	0	0	0	0	498	502	504	31	0	
8	0	0	0	0	0	492	501	506	31	0	
9	0	0	0	0	0	502	508	512	32	0	
10	0	0	0	0	1	506	517	511	31	0	
11	0	0	0	0	0	504	517	519	31	0	
12	0	0	0	0	0	515	517	515	31	0	
13	0	0	0	0	0	519	519	515	31	0	
14	0	0	0	0	0	526	526	517	32	0	
15	0	0	0	0	0	528	518	521	32	0	
0	0	0	0	0	0	520	508	511	32	0	
1	0	0	0	0	0	524	506	505	31	0	
2	0	0	0	0	1	519	498	504	31	0	
3	0	0	0	0	0	520	495	505	31	0	
4	0	0	0	0	0	517	495	503	32	0	
5	0	0	0	0	0	515	497	501	32	0	
6	0	0	0	0	0	513	503	512	32	0	
7	0	0	0	0	0	511	508	513	32	0	
8	0	0	0	0	0	514	508	510	32	0	
9	0	0	0	0	0	515	517	508	31	0	
10	0	0	0	0	2	516	519	512	31	0	
11	0	0	0	0	0	515	524	513	31	0	
12	0	0	0	0	0	515	520	514	31	0	
13	0	0	0	0	0	511	512	510	32	0	
14	0	0	0	0	0	511	519	515	32	0	
15	0	0	0	0	0	508	514	512	32	0	
0	0	0	0	0	0	504	505	515	31	0	
1	0	0	0	0	0	508	502	515	32	0	
2	0	0	0	0	2	516	506	515	32	0	
3	0	0	0	0	0	515	513	510	32	0	
4	0	0	0	0	0	512	512	504	31	0	
5	0	0	0	0	0	509	514	511	31	0	
6	0	0	0	0	0	513	504	510	31	0	
7	0	0	0	0	0	519	504	505	32	0	
8	0	0	0	0	0	515	507	510	32	0	
9	0	0	0	0	0	509	505	509	32	0	
10	0	0	0	0	2	508	512	508	31	0	
11	0	0	0	0	0	506	513	510	31	0	
12	0	0	0	0	0	511	508	514	31	0	
13	0	0	0	0	0	516	511	523	32	0	
14	0	0	0	0	0	525	518	527	32	0	
15	0	0	0	0	0	534	513	523	32	0	
0	0	0	0	0	0	529	504	513	32	0	
1	0	0	0	0	0	524	499	505	32	0	
2	0	0	0	0	2	519	494	504	31	0	
3	0	0	0	0	0	514	495	499	31	0	
4	0	0	0	0	0	504	503	494	31	0	
5	0	0	0	0	0	503	515	503	31	0	
6	0	0	0	0	0	501	520	511	31	0	
7	0	0	0	0	0	502	519	516	31	0	
8	0	0	0	0	0	511	510	504	31	0	
9	0	0	0	0	0	504	505	513	31	0	
10	0	0	0	0	2	505	508	518	32	0	
11	0	0	0	0	0	514	512	518	32	0	
12	0	0	0	0	0	517	513	512	31	0	
13	0	0	0	0	0	515	511	509	31	0	
14	0	0	0	0	0	518	508	500	31	0	
15	0	0	0	0	0	516	512	498	31	0	
0	0	0	0	0	0	515	523	513	32	0	
1	0	0	0	0	0	522	526	523	32	0	
2	0	0	0	0	2	517	520	519	32	0	
3	0	0	0	0	0	516	519	521	32	0	
4	0	0	0	0	0	523	513	530	32	0	
5	0	0	0	0	0	525	503	517	32	0	
6	0	0	0	0	0	525	499	496	31	0	
7	0	0	0	0	0	518	494	496	31	0	
8	0	0	0	0	0	505	492	505	31	0	
9	0	0	0	0	0	497	496	507	31	0	
10	0	0	0	0	2	496	505	512	32	0	
11	0	0	0	0	0	502	513	512	32	0	
12	0	0	0	0	0	511	520	513	32	0	
13	0	0	0	0	0	516	521	513	31	0	
14	0	0	0	0	0	518	523	513	31	0	
15	0	0	0	0	0	523	519	506	31	0	
0	0	0	0	0	0	535	511	506	32	0	
1	0	0	0	0	0	536	500	513	32	0	
2	0	0	0	0	2	523	493	511	32	0	
3	0	0	0	0	0	509	496	506	32	0	
4	0	0	0	0	0	502	507	510	31	0	
5	0	0	0	0	0	499	515	516	32	0	
6	0	0	0	0	0	504	516	524	32	0	
7	0	0	0	0	0	512	520	517	32	0	
8	0	0	0	0	0	504	521	506	31	0	
9	0	0	0	0	0	493	516	514	31	0	
10	0	0	0	0	2	495	509	509	31	0	
11	0	0	0	0	0	511	502	501	31	0	
12	0	0	0	0	0	523	500	503	31	0	
13	0	0	0	0	0	524	501	506	32	0	
14	0	0	0	0	0	521	501	510	32	0	
15	0	0	0	0	0	527	505	513	32	0	
0	0	0	0	0	0	525	512	518	32	0	
1	0	0	0	0	0	525	515	516	32	0	
2	0	0	0	0	2	516	519	512	32	0	
3	0	0	0	0	0	508	518	508	31	0	
4	0	0	0	0	0	508	516	514	31	0	
5	0	0	0	0	0	508	508	519	31	0	
6	0	0	0	0	0	513	499	510	32	0	
7	0	0	0	0	0	514	499	507	32	0	
8	0	0	0	0	0	507	509	512	32	0	
9	0	0	0	0	0	504	523	518	31	0	
10	0	0	0	0	2	511	520	512	31	0	
11	0	0	0	0	0	513	510	506	31	0	
12	0	0	0	0	0	514	504	504	32	0	
13	0	0	0	0	0	515	504	508	32	0	
14	0	0	0	0	0	518	506	505	32	0	
15	0	0	0	0	0	516	515	510	31	0	
0	0	0	0	0	0	511	512	515	31	0	
1	0	0	0	0	0	509	509	515	31	0	
2	0	0	0	0	1	512	507	515	31	0	
3	0	0	0	0	0	517	499	510	32	0	
4	0	0	0	0	0	520	499	513	32	0	
5	0	0	0	0	0	520	504	512	32	0	
6	0	0	0	0	0	514	506	515	32	0	
7	0	0	0	0	0	514	513	520	32	0	
8	0	0	0	0	0	519	515	514	32	0	
9	0	0	0	0	0	519	511	509	31	0	
10	0	0	0	0	1	514	514	509	31	0	
11	0	0	0	0	0	508	517	510	31	0	
12	0	0	0	0	0	505	510	518	31	0	
13	0	0	0	0	0	511	505	525	32	0	
14	0	0	0	0	0	522	510	526	32	0	
15	0	0	0	0	0	526	516	516	32	0	
0	0	0	0	0	0	522	515	503	32	0	
1	0	0	0	0	0	513	514	492	31	0	
2	0	0	0	0	1	504	509	487	31	0	
3	0	0	0	0	0	511	501	485	31	0	
4	0	0	0	0	0	518	504	489	31	0	
5	0	0	0	0	0	514	505	499	31	0	
6	0	0	0	0	0	508	508	507	31	0	
7	0	0	0	0	0	501	510	519	31	0	
8	0	0	0	0	0	505	510	524	31	0	
9	0	0	0	0	0	510	516	536	32	0	
10	0	0	0	0	2	512	516	535	32	0	
11	0	0	0	0	0	514	515	525	32	0	
12	0	0	0	0	0	517	515	518	32	0	
13	0	0	0	0	0	518	512	513	32	0	
14	0	0	0	0	0	516	508	499	32	0	
15	0	0	0	0	0	515	507	495	32	0	
0	0	0	0	0	0	516	503	497	32	0	
1	0	0	0	0	0	517	504	516	32	0	
2	0	0	0	0	2	513	506	529	32	0	
3	0	0	0	0	0	515	506	524	31	0	
4	0	0	0	0	0	514	508	521	31	0	
5	0	0	0	0	0	513	509	510	31	0	
6	0	0	0	0	0	517	510	499	31	0	
7	0	0	0	0	0	519	511	495	31	0	
8	0	0	0	0	0	521	509	495	31	0	
9	0	0	0	0	0	520	510	504	31	0	
10	0	0	0	0	2	516	510	510	31	0	
11	0	0	0	0	0	508	514	517	32	0	
12	0	0	0	0	0	508	512	523	31	0	
13	0	0	0	0	0	510	512	523	32	0	
14	0	0	0	0	0	511	509	514	32	0	
15	0	0	0	0	0	517	512	504	32	0	
0	0	0	0	0	0	514	509	503	31	0	
1	0	0	0	0	0	511	511	511	32	0	
2	0	0	0	0	2	510	511	513	32	0	
3	0	0	0	0	0	512	511	515	31	0	
4	0	0	0	0	0	512	512	518	32	0	
5	0	0	0	0	0	514	508	512	31	0	
6	0	0	0	0	0	518	510	501	31	0	
7	0	0	0	0	0	513	508	507	32	0	
8	0	0	0	0	0	515	509	525	32	0	
9	0	0	0	0	0	514	509	521	31	0	
10	0	0	0	0	2	518	511	514	31	0	
11	0	0	0	0	0	513	512	502	32	0	
12	0	0	0	0	0	516	511	492	32	0	
13	0	0	0	0	0	516	512	496	32	0	
14	0	0	0	0	0	515	509	505	32	0	
15	0	0	0	0	0	516	509	510	31	0	
0	0	0	0	0	0	513	506	515	31	0	
1	0	0	0	0	0	513	507	513	32	0	
2	0	0	0	0	2	514	507	508	32	0	
3	0	0	0	0	0	513	510	509	32	0	
4	0	0	0	0	0	509	508	513	31	0	
5	0	0	0	0	0	510	510	520	31	0	
6	0	0	0	0	0	516	511	519	31	0	
7	0	0	0	0	0	516	512	519	32	0	
8	0	0	0	0	0	514	511	516	32	0	
9	0	0	0	0	0	514	513	516	32	0	
10	0	0	0	0	2	513	511	516	32	0	
11	0	0	0	0	0	517	510	512	31	0	
12	0	0	0	0	0	518	509	510	31	0	
13	0	0	0	0	0	513	510	511	31	0	
14	0	0	0	0	0	512	511	519	31	0	
15	0	0	0	0	0	513	508	524	32	0	
0	0	0	0	0	0	515	511	525	32	0	
1	0	0	0	0	0	514	510	521	33	0	
2	0	0	0	0	2	516	507	505	32	0	
3	0	0	0	0	0	518	505	496	32	0	
4	0	0	0	0	0	508	504	489	31	0	
5	0	0	0	0	0	512	507	487	31	0	
6	0	0	0	0	0	503	512	501	31	0	
7	0	0	0	0	0	518	513	507	31	0	
8	0	0	0	0	0	519	516	508	31	0	
9	0	0	0	0	0	510	512	506	31	0	
10	0	0	0	0	2	509	510	509	32	0	
11	0	0	0	0	0	511	512	510	32	0	
12	0	0	0	0	0	519	511	514	31	0	
13	0	0	0	0	0	519	509	518	31	0	
14	0	0	0	0	0	517	508	527	32	0	
15	0	0	0	0	0	515	510	525	32	0	
0	0	0	0	0	0	512	509	518	32	0	
1	0	0	0	0	0	513	508	512	32	0	
2	0	0	0	0	2	513	511	509	32	0	
3	0	0	0	0	0	511	511	511	32	0	
4	0	0	0	0	0	510	511	519	31	0	
5	0	0	0	0	0	512	512	527	31	0	
6	0	0	0	0	0	512	513	526	31	0	
7	0	0	0	0	0	513	510	521	31	0	
8	0	0	0	0	0	513	510	502	31	0	
9	0	0	0	0	0	516	510	494	30	0	
10	0	0	0	0	2	516	506	493	31	0	
11	0	0	0	0	0	516	510	489	32	0	
12	0	0	0	0	0	519	509	487	32	0	
13	0	0	0	0	0	517	511	492	32	0	
14	0	0	0	0	0	519	513	495	32	0	
15	0	0	0	0	0	519	512	498	32	0	
0	0	0	0	0	0	508	507	521	32	0	
1	0	0	0	0	0	514	504	527	32	0	
2	0	0	0	0	1	514	509	525	32	0	
3	0	0	0	0	0	510	509	521	32	0	
4	0	0	0	0	0	510	512	519	32	0	
5	0	0	0	0	0	511	509	515	31	0	
6	0	0	0	0	0	515	509	508	32	0	
7	0	0	0	0	0	514	508	504	32	0	
8	0	0	0	0	0	513	508	509	32	0	
9	0	0	0	0	0	514	512	513	32	0	
10	0	0	0	0	1	515	512	516	32	0	
11	0	0	0	0	0	515	507	522	31	0	
12	0	0	0	0	0	516	510	521	31	0	
13	0	0	0	0	0	518	512	521	31	0	
14	0	0	0	0	0	516	509	517	31	0	
15	0	0	0	0	0	513	511	519	32	0	
0	0	0	0	0	0	513	512	523	31	0	
1	0	0	0	0	0	513	514	514	32	0	
2	0	0	0	0	2	514	509	509	32	0	
3	0	0	0	0	0	514	509	505	32	0	
4	0	0	0	0	0	515	512	496	31	0	
5	0	0	0	0	0	515	513	496	32	0	
6	0	0	0	0	0	512	511	503	32	0	
7	0	0	0	0	0	513	509	515	32	0	
8	0	0	0	0	0	512	509	518	31	0	
9	0	0	0	0	0	512	509	519	31	0	
10	0	0	0	0	2	515	509	510	31	0	
11	0	0	0	0	0	513	509	505	31	0	
12	0	0	0	0	0	512	507	506	31	0	
13	0	0	0	0	0	512	510	505	31	0	
14	0	0	0	0	0	515	513	503	31	0	
15	0	0	0	0	0	515	512	514	32	0	
0	0	0	0	0	0	514	509	519	32	0	
1	0	0	0	0	0	514	511	519	32	0	
2	0	0	0	0	2	514	506	525	32	0	
3	0	0	0	0	0	515	505	517	32	0	
4	0	0	0	0	0	516	507	507	32	0	
5	0	0	0	0	0	514	509	499	31	0	
6	0	0	0	0	0	512	509	500	31	0	
7	0	0	0	0	0	514	508	504	31	0	
8	0	0	0	0	0	513	508	497	31	0	
9	0	0	0	0	0	515	512	507	32	0	
