# OpenSignals Text File Format. Version 1
# {"98:D3:51:FE:6E:5C": {"position": 0, "device": "bitalino_rev", "device name": "98:D3:51:FE:6E:5C", "device connection": "BTH98:D3:51:FE:6E:5C", "sampling rate": 1000, "resolution": [4, 1, 1, 1, 1, 10, 10, 10, 10, 6, 6], "firmware version": 1282, "comments": "", "keywords": "", "mode": 0, "sync interval": 2, "date": "2026-6-12", "time": "12:36:17.248", "channels": [1, 2, 3, 4, 5, 6], "sensor": ["RAW", "RAW", "RAW", "RAW", "RAW", "RAW"], "label": ["A1", "A2", "A3", "A4", "A5", "A6"], "column": ["nSeq", "I1", "I2", "O1", "O2", "A1", "A2", "A3", "A4", "A5", "A6"], "special": [{}, {}, {}, {}, {}, {}], "digital IO": [0, 0, 1, 1]}}
# EndOfHeader
0	0	0	0	0	0	513	509	513	31	0	
1	0	0	0	0	0	515	513	511	32	0	
2	0	0	0	0	0	513	514	511	32	0	
3	0	0	0	0	0	515	511	512	32	0	
4	0	0	0	0	0	515	508	508	31	0	
5	0	0	0	0	0	515	508	510	31	0	
6	0	0	0	0	0	514	507	509	31	0	
7	0	0	0	0	2	514	510	512	32	0	
8	0	0	0	0	0	515	508	511	32	0	
9	0	0	0	0	0	515	508	511	31	0	
10	0	0	0	0	0	515	508	511	31	0	
11	0	0	0	0	0	512	511	511	31	0	
12	0	0	0	0	0	512	510	511	32	0	
13	0	0	0	0	0	514	507	511	32	0	
14	0	0	0	0	0	514	509	512	32	0	
15	0	0	0	0	2	514	510	513	32	0	
0	0	0	0	0	0	514	510	515	32	0	
1	0	0	0	0	0	514	511	512	32	0	
2	0	0	0	0	0	515	511	512	31	0	
3	0	0	0	0	0	516	513	510	31	0	
4	0	0	0	0	0	516	510	509	31	0	
5	0	0	0	0	0	515	513	511	31	0	
6	0	0	0	0	0	511	512	511	31	0	
7	0	0	0	0	2	512	511	511	31	0	
8	0	0	0	0	0	512	511	511	31	0	
9	0	0	0	0	0	512	509	510	31	0	
10	0	0	0	0	0	513	510	511	31	0	
11	0	0	0	0	0	515	511	508	31	0	
12	0	0	0	0	0	517	511	510	31	0	
13	0	0	0	0	0	515	510	510	31	0	
14	0	0	0	0	0	516	507	508	31	0	
15	0	0	0	0	2	514	507	513	31	0	
0	0	0	0	0	0	513	507	511	31	0	
1	0	0	0	0	0	511	507	509	31	0	
2	0	0	0	0	0	511	507	509	32	0	
3	0	0	0	0	0	511	507	509	32	0	
4	0	0	0	0	0	511	508	512	32	0	
5	0	0	0	0	0	513	508	516	32	0	
6	0	0	0	0	0	514	510	513	32	0	
7	0	0	0	0	1	513	509	512	32	0	
8	0	0	0	0	0	514	508	511	32	0	
9	0	0	0	0	0	516	511	511	32	0	
10	0	0	0	0	0	515	511	513	32	0	
11	0	0	0	0	0	515	510	510	32	0	
12	0	0	0	0	0	517	511	511	31	0	
13	0	0	0	0	0	517	512	510	31	0	
14	0	0	0	0	0	514	511	512	31	0	
15	0	0	0	0	1	515	510	511	32	0	
0	0	0	0	0	0	515	511	512	32	0	
1	0	0	0	0	0	511	510	509	32	0	
2	0	0	0	0	0	513	509	510	32	0	
3	0	0	0	0	0	510	508	508	32	0	
4	0	0	0	0	0	513	507	509	31	0	
5	0	0	0	0	0	513	509	510	31	0	
6	0	0	0	0	0	512	510	511	31	0	
7	0	0	0	0	1	512	510	511	31	0	
8	0	0	0	0	0	512	511	510	31	0	
9	0	0	0	0	0	510	510	511	31	0	
10	0	0	0	0	0	513	510	511	32	0	
11	0	0	0	0	0	512	509	511	31	0	
12	0	0	0	0	0	516	512	510	31	0	
13	0	0	0	0	0	515	508	511	31	0	
14	0	0	0	0	0	513	508	510	31	0	
15	0	0	0	0	2	515	509	510	31	0	
0	0	0	0	0	0	514	511	511	32	0	
1	0	0	0	0	0	516	510	512	31	0	
2	0	0	0	0	0	516	512	513	32	0	
3	0	0	0	0	0	515	511	513	32	0	
4	0	0	0	0	0	513	508	512	32	0	
5	0	0	0	0	0	514	509	512	32	0	
6	0	0	0	0	0	513	511	510	31	0	
7	0	0	0	0	2	513	509	511	32	0	
8	0	0	0	0	0	514	510	513	32	0	
9	0	0	0	0	0	511	508	510	31	0	
10	0	0	0	0	0	514	510	511	31	0	
11	0	0	0	0	0	512	510	511	32	0	
12	0	0	0	0	0	514	509	509	32	0	
13	0	0	0	0	0	514	512	513	32	0	
14	0	0	0	0	0	513	510	512	32	0	
15	0	0	0	0	2	515	510	510	31	0	
0	0	0	0	0	0	517	509	510	31	0	
1	0	0	0	0	0	516	507	511	31	0	
2	0	0	0	0	0	516	506	509	31	0	
3	0	0	0	0	0	517	510	510	31	0	
4	0	0	0	0	0	514	511	510	32	0	
5	0	0	0	0	0	513	511	508	31	0	
6	0	0	0	0	0	512	509	510	31	0	
7	0	0	0	0	2	513	510	510	32	0	
8	0	0	0	0	0	513	510	510	32	0	
9	0	0	0	0	0	514	508	511	31	0	
10	0	0	0	0	0	516	508	514	31	0	
11	0	0	0	0	0	515	510	512	32	0	
12	0	0	0	0	0	514	511	513	32	0	
13	0	0	0	0	0	516	508	512	31	0	
14	0	0	0	0	0	513	511	513	32	0	
15	0	0	0	0	2	512	512	510	31	0	
0	0	0	0	0	0	511	515	512	32	0	
1	0	0	0	0	0	510	512	511	31	0	
2	0	0	0	0	0	512	510	510	31	0	
3	0	0	0	0	0	512	507	511	31	0	
4	0	0	0	0	0	512	506	510	31	0	
5	0	0	0	0	0	512	507	510	32	0	
6	0	0	0	0	0	514	506	511	32	0	
7	0	0	0	0	2	513	507	512	31	0	
8	0	0	0	0	0	515	508	509	32	0	
9	0	0	0	0	0	515	508	511	32	0	
10	0	0	0	0	0	513	509	512	32	0	
11	0	0	0	0	0	515	510	511	32	0	
12	0	0	0	0	0	515	509	514	32	0	
13	0	0	0	0	0	516	509	513	32	0	
14	0	0	0	0	0	515	510	511	31	0	
15	0	0	0	0	2	516	510	512	31	0	
0	0	0	0	0	0	515	509	513	32	0	
1	0	0	0	0	0	515	510	509	31	0	
2	0	0	0	0	0	514	510	506	31	0	
3	0	0	0	0	0	514	508	508	31	0	
4	0	0	0	0	0	514	512	509	31	0	
5	0	0	0	0	0	514	511	510	32	0	
6	0	0	0	0	0	512	512	510	32	0	
7	0	0	0	0	2	513	511	513	32	0	
8	0	0	0	0	0	512	510	511	31	0	
9	0	0	0	0	0	513	510	513	32	0	
10	0	0	0	0	0	513	509	510	32	0	
11	0	0	0	0	0	514	512	510	32	0	
12	0	0	0	0	0	517	511	512	32	0	
13	0	0	0	0	0	514	510	510	31	0	
14	0	0	0	0	0	513	512	511	32	0	
15	0	0	0	0	2	515	509	510	32	0	
0	0	0	0	0	0	515	510	513	31	0	
1	0	0	0	0	0	515	511	511	31	0	
2	0	0	0	0	0	513	510	512	32	0	
3	0	0	0	0	0	513	509	513	32	0	
4	0	0	0	0	0	513	510	512	32	0	
5	0	0	0	0	0	515	510	512	32	0	
6	0	0	0	0	0	515	509	511	31	0	
7	0	0	0	0	2	515	509	510	32	0	
8	0	0	0	0	0	512	509	511	32	0	
9	0	0	0	0	0	514	510	511	32	0	
10	0	0	0	0	0	511	509	511	32	0	
11	0	0	0	0	0	512	507	509	32	0	
12	0	0	0	0	0	512	508	509	32	0	
13	0	0	0	0	0	514	511	510	31	0	
14	0	0	0	0	0	516	508	511	32	0	
15	0	0	0	0	2	515	507	511	31	0	
0	0	0	0	0	0	515	508	511	31	0	
1	0	0	0	0	0	515	510	509	31	0	
2	0	0	0	0	0	516	509	510	31	0	
3	0	0	0	0	0	516	509	511	31	0	
4	0	0	0	0	0	516	509	512	31	0	
5	0	0	0	0	0	518	512	510	32	0	
6	0	0	0	0	0	514	511	513	32	0	
7	0	0	0	0	1	512	511	512	32	0	
8	0	0	0	0	0	509	509	510	32	0	
9	0	0	0	0	0	510	510	511	31	0	
10	0	0	0	0	0	511	509	510	32	0	
11	0	0	0	0	0	511	510	511	31	0	
12	0	0	0	0	0	513	510	513	31	0	
13	0	0	0	0	0	513	508	512	31	0	
14	0	0	0	0	0	512	508	511	31	0	
15	0	0	0	0	1	512	508	510	31	0	
0	0	0	0	0	0	513	507	508	32	0	
1	0	0	0	0	0	513	510	510	32	0	
2	0	0	0	0	0	514	508	512	32	0	
3	0	0	0	0	0	513	509	513	31	0	
4	0	0	0	0	0	513	509	512	31	0	
5	0	0	0	0	0	515	511	510	31	0	
6	0	0	0	0	0	516	509	508	32	0	
7	0	0	0	0	1	516	510	514	32	0	
8	0	0	0	0	0	513	510	511	32	0	
9	0	0	0	0	0	516	510	511	31	0	
10	0	0	0	0	0	514	510	512	31	0	
11	0	0	0	0	0	515	509	513	32	0	
12	0	0	0	0	0	516	508	511	32	0	
13	0	0	0	0	0	514	511	509	31	0	
14	0	0	0	0	0	512	511	508	31	0	
15	0	0	0	0	2	514	510	510	31	0	
0	0	0	0	0	0	512	510	511	31	0	
1	0	0	0	0	0	515	510	509	31	0	
2	0	0	0	0	0	515	509	510	32	0	
3	0	0	0	0	0	515	508	514	32	0	
4	0	0	0	0	0	513	511	513	32	0	
5	0	0	0	0	0	513	510	513	32	0	
6	0	0	0	0	0	512	510	512	32	0	
7	0	0	0	0	2	514	510	513	32	0	
8	0	0	0	0	0	514	507	511	32	0	
9	0	0	0	0	0	516	508	510	31	0	
10	0	0	0	0	0	513	508	510	32	0	
11	0	0	0	0	0	513	513	513	31	0	
12	0	0	0	0	0	512	512	511	31	0	
13	0	0	0	0	0	512	510	510	31	0	
14	0	0	0	0	0	513	510	510	31	0	
15	0	0	0	0	2	516	508	510	31	0	
0	0	0	0	0	0	515	508	509	31	0	
1	0	0	0	0	0	515	511	509	31	0	
2	0	0	0	0	0	515	511	507	31	0	
3	0	0	0	0	0	513	511	508	31	0	
4	0	0	0	0	0	516	511	510	31	0	
5	0	0	0	0	0	512	510	508	31	0	
6	0	0	0	0	0	512	510	510	31	0	
7	0	0	0	0	2	513	508	513	32	0	
8	0	0	0	0	0	512	508	515	32	0	
9	0	0	0	0	0	513	510	512	32	0	
10	0	0	0	0	0	512	508	511	32	0	
11	0	0	0	0	0	513	507	511	32	0	
12	0	0	0	0	0	515	505	511	32	0	
13	0	0	0	0	0	515	510	511	31	0	
14	0	0	0	0	0	515	512	512	31	0	
15	0	0	0	0	2	516	512	510	32	0	
0	0	0	0	0	0	516	511	512	31	0	
1	0	0	0	0	0	515	511	512	31	0	
2	0	0	0	0	0	514	512	510	31	0	
3	0	0	0	0	0	515	511	510	31	0	
4	0	0	0	0	0	512	511	508	32	0	
5	0	0	0	0	0	512	510	509	31	0	
6	0	0	0	0	0	515	510	509	31	0	
7	0	0	0	0	2	513	510	512	32	0	
8	0	0	0	0	0	513	510	512	32	0	
9	0	0	0	0	0	514	508	514	32	0	
10	0	0	0	0	0	513	509	511	32	0	
11	0	0	0	0	0	514	505	510	31	0	
12	0	0	0	0	0	514	505	511	31	0	
13	0	0	0	0	0	512	506	511	31	0	
14	0	0	0	0	0	511	508	511	31	0	
15	0	0	0	0	2	514	510	510	32	0	
0	0	0	0	0	0	517	509	509	32	0	
1	0	0	0	0	0	515	508	512	31	0	
2	0	0	0	0	0	514	508	511	32	0	
3	0	0	0	0	0	515	507	514	32	0	
4	0	0	0	0	0	513	511	512	32	0	
5	0	0	0	0	0	513	511	510	31	0	
6	0	0	0	0	0	513	512	510	31	0	
7	0	0	0	0	2	514	509	512	31	0	
8	0	0	0	0	0	515	510	510	32	0	
9	0	0	0	0	0	515	511	510	32	0	
10	0	0	0	0	0	515	510	509	31	0	
11	0	0	0	0	0	513	512	512	32	0	
12	0	0	0	0	0	511	512	513	31	0	
13	0	0	0	0	0	514	512	511	32	0	
14	0	0	0	0	0	514	511	514	32	0	
15	0	0	0	0	2	513	509	513	31	0	
0	0	0	0	0	0	513	508	511	31	0	
1	0	0	0	0	0	513	508	510	31	0	
2	0	0	0	0	0	512	508	512	32	0	
3	0	0	0	0	0	514	509	512	32	0	
4	0	0	0	0	0	514	509	509	32	0	
5	0	0	0	0	0	515	510	511	31	0	
6	0	0	0	0	0	514	508	510	32	0	
7	0	0	0	0	2	515	508	511	32	0	
8	0	0	0	0	0	514	508	513	31	0	
9	0	0	0	0	0	515	509	512	31	0	
10	0	0	0	0	0	513	508	512	31	0	
11	0	0	0	0	0	511	509	511	31	0	
12	0	0	0	0	0	511	508	513	32	0	
13	0	0	0	0	0	513	511	513	32	0	
14	0	0	0	0	0	515	510	510	32	0	
15	0	0	0	0	1	514	510	510	32	0	
0	0	0	0	0	0	513	508	512	31	0	
1	0	0	0	0	0	516	510	511	32	0	
2	0	0	0	0	0	516	510	510	31	0	
3	0	0	0	0	0	516	511	510	31	0	
4	0	0	0	0	0	516	509	511	31	0	
5	0	0	0	0	0	515	509	510	32	0	
6	0	0	0	0	0	515	510	512	32	0	
7	0	0	0	0	0	515	512	513	31	0	
8	0	0	0	0	0	514	510	513	31	0	
9	0	0	0	0	0	514	509	512	32	0	
10	0	0	0	0	0	513	511	511	32	0	
11	0	0	0	0	0	512	512	511	32	0	
12	0	0	0	0	0	515	509	512	32	0	
13	0	0	0	0	0	514	508	513	32	0	
14	0	0	0	0	0	513	511	511	32	0	
15	0	0	0	0	1	513	511	511	32	0	
0	0	0	0	0	0	512	512	511	32	0	
1	0	0	0	0	0	513	510	508	31	0	
2	0	0	0	0	0	514	510	511	31	0	
3	0	0	0	0	0	514	511	509	31	0	
4	0	0	0	0	0	517	510	509	31	0	
5	0	0	0	0	0	514	510	512	31	0	
6	0	0	0	0	0	515	512	512	31	0	
7	0	0	0	0	2	515	510	512	32	0	
8	0	0	0	0	0	515	511	512	31	0	
9	0	0	0	0	0	516	511	512	32	0	
10	0	0	0	0	0	514	510	512	32	0	
11	0	0	0	0	0	516	507	512	31	0	
12	0	0	0	0	0	515	505	508	31	0	
13	0	0	0	0	0	515	507	508	31	0	
14	0	0	0	0	0	511	505	510	32	0	
15	0	0	0	0	2	511	507	509	32	0	
0	0	0	0	0	0	514	508	512	32	0	
1	0	0	0	0	0	512	511	511	32	0	
2	0	0	0	0	0	513	508	511	31	0	
3	0	0	0	0	0	512	508	511	32	0	
4	0	0	0	0	0	511	508	514	31	0	
5	0	0	0	0	0	510	511	513	32	0	
6	0	0	0	0	0	509	510	511	32	0	
7	0	0	0	0	2	513	510	511	31	0	
8	0	0	0	0	0	513	513	514	31	0	
9	0	0	0	0	0	512	513	510	31	0	
10	0	0	0	0	0	514	511	511	31	0	
11	0	0	0	0	0	516	509	511	32	0	
12	0	0	0	0	0	516	511	512	32	0	
13	0	0	0	0	0	518	508	512	32	0	
14	0	0	0	0	0	516	510	512	32	0	
15	0	0	0	0	2	515	511	510	32	0	
0	0	0	0	0	0	515	509	510	31	0	
1	0	0	0	0	0	514	511	509	31	0	
2	0	0	0	0	0	513	508	511	31	0	
3	0	0	0	0	0	515	510	511	32	0	
4	0	0	0	0	0	513	510	511	32	0	
5	0	0	0	0	0	514	510	512	32	0	
6	0	0	0	0	0	513	510	510	32	0	
7	0	0	0	0	2	514	508	508	31	0	
8	0	0	0	0	0	515	508	512	31	0	
9	0	0	0	0	0	512	507	512	32	0	
10	0	0	0	0	0	515	508	512	32	0	
11	0	0	0	0	0	515	508	510	31	0	
12	0	0	0	0	0	516	509	512	32	0	
13	0	0	0	0	0	513	513	511	32	0	
14	0	0	0	0	0	513	511	510	31	0	
15	0	0	0	0	2	514	512	510	32	0	
0	0	0	0	0	0	512	511	510	32	0	
1	0	0	0	0	0	515	511	510	32	0	
2	0	0	0	0	0	513	510	511	32	0	
3	0	0	0	0	0	515	507	512	32	0	
4	0	0	0	0	0	514	510	513	32	0	
5	0	0	0	0	0	515	509	511	32	0	
6	0	0	0	0	0	513	509	512	32	0	
7	0	0	0	0	2	517	509	514	32	0	
8	0	0	0	0	0	519	508	512	32	0	
9	0	0	0	0	0	517	510	512	31	0	
10	0	0	0	0	0	516	511	509	31	0	
11	0	0	0	0	0	512	511	511	31	0	
12	0	0	0	0	0	511	510	509	32	0	
13	0	0	0	0	0	511	510	510	31	0	
14	0	0	0	0	0	511	508	511	31	0	
15	0	0	0	0	2	512	509	511	31	0	
0	0	0	0	0	0	512	511	512	31	0	
1	0	0	0	0	0	512	511	510	32	0	
2	0	0	0	0	0	511	510	511	32	0	
3	0	0	0	0	0	513	510	512	32	0	
4	0	0	0	0	0	513	509	511	31	0	
5	0	0	0	0	0	513	508	512	31	0	
6	0	0	0	0	0	515	511	511	32	0	
7	0	0	0	0	2	515	509	510	31	0	
8	0	0	0	0	0	515	508	510	32	0	
9	0	0	0	0	0	515	507	511	32	0	
10	0	0	0	0	0	516	507	512	31	0	
11	0	0	0	0	0	515	511	513	32	0	
12	0	0	0	0	0	515	508	511	32	0	
13	0	0	0	0	0	515	507	510	32	0	
14	0	0	0	0	0	515	511	511	32	0	
15	0	0	0	0	2	515	510	511	32	0	
0	0	0	0	0	0	514	513	511	31	0	
1	0	0	0	0	0	513	513	510	31	0	
2	0	0	0	0	0	513	509	512	31	0	
3	0	0	0	0	0	512	510	511	31	0	
4	0	0	0	0	0	511	509	510	32	0	
5	0	0	0	0	0	514	510	511	31	0	
6	0	0	0	0	0	513	510	510	31	0	
7	0	0	0	0	2	514	511	511	32	0	
8	0	0	0	0	0	513	510	511	32	0	
9	0	0	0	0	0	513	511	510	32	0	
10	0	0	0	0	0	513	509	510	32	0	
11	0	0	0	0	0	514	510	510	31	0	
12	0	0	0	0	0	516	509	512	32	0	
13	0	0	0	0	0	513	508	512	31	0	
14	0	0	0	0	0	513	509	513	31	0	
15	0	0	0	0	1	515	508	511	32	0	
0	0	0	0	0	0	515	508	512	31	0	
1	0	0	0	0	0	512	510	514	31	0	
2	0	0	0	0	0	513	510	512	32	0	
3	0	0	0	0	0	511	510	512	32	0	
4	0	0	0	0	0	512	511	511	31	0	
5	0	0	0	0	0	512	509	509	31	0	
6	0	0	0	0	0	513	508	510	31	0	
7	0	0	0	0	1	514	510	512	31	0	
8	0	0	0	0	0	515	508	510	32	0	
9	0	0	0	0	0	514	506	511	32	0	
10	0	0	0	0	0	514	508	511	31	0	
11	0	0	0	0	0	515	512	512	31	0	
12	0	0	0	0	0	515	509	510	32	0	
13	0	0	0	0	0	515	511	512	32	0	
14	0	0	0	0	0	516	510	512	31	0	
15	0	0	0	0	1	515	511	512	32	0	
0	0	0	0	0	0	515	512	512	32	0	
1	0	0	0	0	0	513	512	511	32	0	
2	0	0	0	0	0	512	510	510	31	0	
3	0	0	0	0	0	513	507	510	31	0	
4	0	0	0	0	0	512	510	510	31	0	
5	0	0	0	0	0	513	509	511	31	0	
6	0	0	0	0	0	514	510	510	31	0	
7	0	0	0	0	2	518	512	510	31	0	
8	0	0	0	0	0	515	510	512	31	0	
9	0	0	0	0	0	513	511	513	31	0	
10	0	0	0	0	0	514	511	511	31	0	
11	0	0	0	0	0	516	510	509	31	0	
12	0	0	0	0	0	513	508	511	31	0	
13	0	0	0	0	0	511	508	509	31	0	
14	0	0	0	0	0	511	509	512	32	0	
15	0	0	0	0	2	512	508	512	32	0	
0	0	0	0	0	0	509	510	514	32	0	
1	0	0	0	0	0	512	514	515	32	0	
2	0	0	0	0	0	512	511	513	32	0	
3	0	0	0	0	0	514	509	510	31	0	
4	0	0	0	0	0	515	505	509	31	0	
5	0	0	0	0	0	515	506	511	32	0	
6	0	0	0	0	0	513	505	510	32	0	
7	0	0	0	0	2	515	505	510	32	0	
8	0	0	0	0	0	514	508	510	31	0	
9	0	0	0	0	0	515	509	511	31	0	
10	0	0	0	0	0	515	507	510	31	0	
11	0	0	0	0	0	514	511	511	32	0	
12	0	0	0	0	0	513	510	511	32	0	
13	0	0	0	0	0	512	510	510	32	0	
14	0	0	0	0	0	513	510	510	31	0	
15	0	0	0	0	2	512	508	511	31	0	
0	0	0	0	0	0	514	510	508	31	0	
1	0	0	0	0	0	513	509	511	31	0	
2	0	0	0	0	0	516	512	511	32	0	
3	0	0	0	0	0	513	511	511	32	0	
4	0	0	0	0	0	513	512	509	32	0	
5	0	0	0	0	0	514	511	512	32	0	
6	0	0	0	0	0	513	511	512	32	0	
7	0	0	0	0	2	517	513	512	32	0	
8	0	0	0	0	0	515	513	510	32	0	
9	0	0	0	0	0	514	512	511	31	0	
10	0	0	0	0	0	515	509	511	31	0	
11	0	0	0	0	0	516	508	514	32	0	
12	0	0	0	0	0	514	508	514	31	0	
13	0	0	0	0	0	515	509	513	32	0	
14	0	0	0	0	0	514	510	508	32	0	
15	0	0	0	0	2	513	507	508	31	0	
0	0	0	0	0	0	511	509	510	31	0	
1	0	0	0	0	0	511	510	509	31	0	
2	0	0	0	0	0	510	511	510	32	0	
3	0	0	0	0	0	512	512	512	32	0	
4	0	0	0	0	0	515	511	512	31	0	
5	0	0	0	0	0	514	508	512	32	0	
6	0	0	0	0	0	515	508	511	32	0	
7	0	0	0	0	2	512	510	510	32	0	
8	0	0	0	0	0	515	510	513	32	0	
9	0	0	0	0	0	515	511	512	31	0	
10	0	0	0	0	0	516	512	510	31	0	
11	0	0	0	0	0	515	508	511	31	0	
12	0	0	0	0	0	513	510	513	32	0	
13	0	0	0	0	0	513	508	512	32	0	
14	0	0	0	0	0	513	508	512	31	0	
15	0	0	0	0	2	514	509	513	32	0	
0	0	0	0	0	0	514	510	512	32	0	
1	0	0	0	0	0	515	510	511	32	0	
2	0	0	0	0	0	515	508	513	32	0	
3	0	0	0	0	0	516	509	513	32	0	
4	0	0	0	0	0	513	511	513	32	0	
5	0	0	0	0	0	512	510	511	32	0	
6	0	0	0	0	0	511	511	511	32	0	
7	0	0	0	0	2	508	508	508	31	0	
8	0	0	0	0	0	510	509	509	31	0	
9	0	0	0	0	0	510	509	510	31	0	
10	0	0	0	0	0	511	511	510	31	0	
11	0	0	0	0	0	513	508	511	32	0	
12	0	0	0	0	0	511	510	511	32	0	
13	0	0	0	0	0	513	510	509	32	0	
14	0	0	0	0	0	517	510	510	31	0	
15	0	0	0	0	2	516	512	511	31	0	
0	0	0	0	0	0	515	513	509	31	0	
1	0	0	0	0	0	516	511	510	31	0	
2	0	0	0	0	0	517	510	512	32	0	
3	0	0	0	0	0	514	509	511	31	0	
4	0	0	0	0	0	513	506	511	31	0	
5	0	0	0	0	0	516	508	511	32	0	
6	0	0	0	0	0	513	508	511	31	0	
7	0	0	0	0	2	513	511	511	32	0	
8	0	0	0	0	0	513	508	512	32	0	
9	0	0	0	0	0	512	510	511	32	0	
10	0	0	0	0	0	513	509	508	32	0	
11	0	0	0	0	0	513	509	512	32	0	
12	0	0	0	0	0	516	508	512	32	0	
13	0	0	0	0	0	518	508	514	32	0	
14	0	0	0	0	0	515	509	513	31	0	
15	0	0	0	0	1	517	511	513	32	0	
0	0	0	0	0	0	516	509	513	31	0	
1	0	0	0	0	0	518	510	512	32	0	
2	0	0	0	0	0	516	511	513	32	0	
3	0	0	0	0	0	516	511	510	31	0	
4	0	0	0	0	0	514	511	509	31	0	
5	0	0	0	0	0	511	511	510	31	0	
6	0	0	0	0	0	513	513	511	31	0	
7	0	0	0	0	1	514	511	508	32	0	
8	0	0	0	0	0	515	512	510	32	0	
9	0	0	0	0	0	516	511	509	32	0	
10	0	0	0	0	0	518	510	512	32	0	
11	0	0	0	0	0	515	510	512	32	0	
12	0	0	0	0	0	513	507	512	32	0	
13	0	0	0	0	0	512	509	508	32	0	
14	0	0	0	0	0	513	508	507	31	0	
15	0	0	0	0	1	510	506	507	31	0	
0	0	0	0	0	0	510	508	507	31	0	
1	0	0	0	0	0	511	509	508	31	0	
2	0	0	0	0	0	510	508	506	31	0	
3	0	0	0	0	0	512	509	509	31	0	
4	0	0	0	0	0	512	508	511	31	0	
5	0	0	0	0	0	511	510	512	31	0	
6	0	0	0	0	0	510	508	512	32	0	
7	0	0	0	0	2	510	508	509	31	0	
8	0	0	0	0	0	513	511	512	32	0	
9	0	0	0	0	0	513	510	513	31	0	
10	0	0	0	0	0	513	511	512	32	0	
11	0	0	0	0	0	512	509	513	32	0	
12	0	0	0	0	0	514	509	511	31	0	
13	0	0	0	0	0	515	508	511	31	0	
14	0	0	0	0	0	515	507	512	31	0	
15	0	0	0	0	2	515	510	511	31	0	
0	0	0	0	0	0	515	509	512	31	0	
1	0	0	0	0	0	518	509	512	32	0	
2	0	0	0	0	0	515	507	513	32	0	
3	0	0	0	0	0	516	508	515	32	0	
4	0	0	0	0	0	513	512	515	32	0	
5	0	0	0	0	0	513	511	514	32	0	
6	0	0	0	0	0	517	513	511	32	0	
7	0	0	0	0	2	515	511	512	32	0	
8	0	0	0	0	0	514	510	514	32	0	
9	0	0	0	0	0	513	512	515	32	0	
10	0	0	0	0	0	514	512	512	32	0	
11	0	0	0	0	0	512	514	511	31	0	
12	0	0	0	0	0	515	508	509	31	0	
13	0	0	0	0	0	514	508	509	32	0	
14	0	0	0	0	0	514	509	509	32	0	
15	0	0	0	0	2	517	507	509	31	0	
0	0	0	0	0	0	516	507	510	31	0	
1	0	0	0	0	0	513	508	513	32	0	
2	0	0	0	0	0	512	510	513	31	0	
3	0	0	0	0	0	512	511	512	31	0	
4	0	0	0	0	0	514	510	511	32	0	
5	0	0	0	0	0	514	511	511	31	0	
6	0	0	0	0	0	509	510	510	31	0	
7	0	0	0	0	2	511	512	511	31	0	
8	0	0	0	0	0	511	510	511	32	0	
9	0	0	0	0	0	514	509	512	32	0	
10	0	0	0	0	0	514	510	511	31	0	
11	0	0	0	0	0	514	510	511	32	0	
12	0	0	0	0	0	514	510	510	32	0	
13	0	0	0	0	0	516	509	512	32	0	
14	0	0	0	0	0	517	508	511	32	0	
15	0	0	0	0	2	518	508	508	31	0	
0	0	0	0	0	0	517	510	507	31	0	
1	0	0	0	0	0	516	511	509	31	0	
2	0	0	0	0	0	515	509	506	31	0	
3	0	0	0	0	0	511	510	508	31	0	
4	0	0	0	0	0	512	511	509	31	0	
5	0	0	0	0	0	513	510	510	31	0	
6	0	0	0	0	0	512	511	511	32	0	
7	0	0	0	0	2	511	509	511	31	0	
8	0	0	0	0	0	510	507	515	32	0	
9	0	0	0	0	0	513	510	513	32	0	
10	0	0	0	0	0	513	511	512	31	0	
11	0	0	0	0	0	516	509	511	31	0	
12	0	0	0	0	0	515	508	512	31	0	
13	0	0	0	0	0	516	508	511	32	0	
14	0	0	0	0	0	516	507	512	31	0	
15	0	0	0	0	2	514	508	510	32	0	
0	0	0	0	0	0	516	511	510	31	0	
1	0	0	0	0	0	515	510	512	32	0	
2	0	0	0	0	0	513	509	510	32	0	
3	0	0	0	0	0	513	508	512	31	0	
4	0	0	0	0	0	514	511	512	32	0	
5	0	0	0	0	0	513	510	512	31	0	
6	0	0	0	0	0	514	509	511	31	0	
7	0	0	0	0	2	515	509	512	31	0	
8	0	0	0	0	0	513	510	511	32	0	
9	0	0	0	0	0	512	510	510	32	0	
10	0	0	0	0	0	512	508	512	32	0	
11	0	0	0	0	0	515	510	513	31	0	
12	0	0	0	0	0	515	510	512	31	0	
13	0	0	0	0	0	512	512	510	31	0	
14	0	0	0	0	0	513	511	510	31	0	
15	0	0	0	0	2	515	511	510	31	0	
0	0	0	0	0	0	513	509	510	32	0	
1	0	0	0	0	0	513	508	510	32	0	
2	0	0	0	0	0	515	508	510	31	0	
3	0	0	0	0	0	514	508	512	32	0	
4	0	0	0	0	0	515	507	513	31	0	
5	0	0	0	0	0	512	510	513	32	0	
6	0	0	0	0	0	511	510	513	32	0	
7	0	0	0	0	1	513	510	510	31	0	
8	0	0	0	0	0	513	512	511	32	0	
9	0	0	0	0	0	514	512	512	32	0	
10	0	0	0	0	0	512	508	509	31	0	
11	0	0	0	0	0	512	507	510	31	0	
12	0	0	0	0	0	512	509	510	32	0	
13	0	0	0	0	0	513	509	511	32	0	
14	0	0	0	0	0	512	509	511	31	0	
15	0	0	0	0	1	515	508	511	32	0	
0	0	0	0	0	0	513	510	510	31	0	
1	0	0	0	0	0	513	509	511	31	0	
2	0	0	0	0	0	516	510	511	31	0	
3	0	0	0	0	0	515	511	510	31	0	
4	0	0	0	0	0	515	508	511	32	0	
5	0	0	0	0	0	515	511	510	32	0	
6	0	0	0	0	0	516	509	511	32	0	
7	0	0	0	0	1	515	510	513	32	0	
8	0	0	0	0	0	513	509	511	32	0	
9	0	0	0	0	0	513	508	510	31	0	
10	0	0	0	0	0	514	509	510	32	0	
11	0	0	0	0	0	513	510	509	31	0	
12	0	0	0	0	0	514	511	512	32	0	
13	0	0	0	0	0	515	510	513	32	0	
14	0	0	0	0	0	513	511	513	32	0	
15	0	0	0	0	2	511	512	509	31	0	
0	0	0	0	0	0	514	510	509	31	0	
1	0	0	0	0	0	513	511	512	31	0	
2	0	0	0	0	0	515	511	511	31	0	
3	0	0	0	0	0	515	511	510	31	0	
4	0	0	0	0	0	514	509	510	31	0	
5	0	0	0	0	0	514	506	513	32	0	
6	0	0	0	0	0	515	509	512	32	0	
7	0	0	0	0	2	514	509	512	32	0	
8	0	0	0	0	0	514	508	512	32	0	
9	0	0	0	0	0	513	508	513	32	0	
10	0	0	0	0	0	515	509	511	32	0	
11	0	0	0	0	0	517	507	513	32	0	
12	0	0	0	0	0	512	512	513	32	0	
13	0	0	0	0	0	511	511	511	32	0	
14	0	0	0	0	0	513	512	511	32	0	
15	0	0	0	0	2	513	510	510	31	0	
0	0	0	0	0	0	515	512	510	31	0	
1	0	0	0	0	0	516	509	507	31	0	
2	0	0	0	0	0	512	508	508	31	0	
3	0	0	0	0	0	512	508	511	31	0	
4	0	0	0	0	0	514	507	512	32	0	
5	0	0	0	0	0	513	509	512	32	0	
6	0	0	0	0	0	512	507	512	31	0	
7	0	0	0	0	2	513	509	510	32	0	
8	0	0	0	0	0	513	509	512	31	0	
9	0	0	0	0	0	513	508	513	31	0	
10	0	0	0	0	0	513	510	513	31	0	
11	0	0	0	0	0	513	509	510	32	0	
12	0	0	0	0	0	513	508	511	32	0	
13	0	0	0	0	0	512	509	511	32	0	
14	0	0	0	0	0	513	509	510	32	0	
15	0	0	0	0	2	512	510	513	32	0	
0	0	0	0	0	0	514	512	512	32	0	
1	0	0	0	0	0	513	511	512	32	0	
2	0	0	0	0	0	512	512	511	32	0	
3	0	0	0	0	0	516	512	511	32	0	
4	0	0	0	0	0	517	511	511	31	0	
5	0	0	0	0	0	516	509	508	31	0	
6	0	0	0	0	0	515	508	511	32	0	
7	0	0	0	0	2	512	507	511	32	0	
8	0	0	0	0	0	514	508	513	32	0	
9	0	0	0	0	0	513	508	512	31	0	
10	0	0	0	0	0	514	509	510	31	0	
11	0	0	0	0	0	515	511	508	31	0	
12	0	0	0	0	0	512	514	510	32	0	
13	0	0	0	0	0	514	512	511	32	0	
14	0	0	0	0	0	512	510	510	31	0	
15	0	0	0	0	2	510	508	513	31	0	
0	0	0	0	0	0	512	509	512	31	0	
1	0	0	0	0	0	515	507	514	32	0	
2	0	0	0	0	0	514	507	514	31	0	
3	0	0	0	0	0	518	508	513	31	0	
4	0	0	0	0	0	514	510	513	31	0	
5	0	0	0	0	0	514	510	510	31	0	
6	0	0	0	0	0	515	511	509	31	0	
7	0	0	0	0	2	514	509	506	31	0	
8	0	0	0	0	0	514	510	509	31	0	
9	0	0	0	0	0	513	509	511	32	0	
10	0	0	0	0	0	515	509	510	32	0	
11	0	0	0	0	0	513	508	513	32	0	
12	0	0	0	0	0	513	508	513	32	0	
13	0	0	0	0	0	512	509	511	32	0	
14	0	0	0	0	0	513	511	511	32	0	
15	0	0	0	0	2	515	513	512	32	0	
0	0	0	0	0	0	515	512	510	32	0	
1	0	0	0	0	0	517	510	508	31	0	
2	0	0	0	0	0	515	509	508	31	0	
3	0	0	0	0	0	512	510	510	31	0	
4	0	0	0	0	0	511	510	512	31	0	
5	0	0	0	0	0	513	509	512	31	0	
6	0	0	0	0	0	513	510	511	31	0	
7	0	0	0	0	2	513	509	514	32	0	
8	0	0	0	0	0	515	508	512	31	0	
9	0	0	0	0	0	515	510	512	32	0	
10	0	0	0	0	0	515	510	512	32	0	
11	0	0	0	0	0	515	508	512	31	0	
12	0	0	0	0	0	514	508	510	32	0	
13	0	0	0	0	0	512	508	510	31	0	
14	0	0	0	0	0	512	509	511	32	0	
15	0	0	0	0	2	512	509	511	32	0	
0	0	0	0	0	0	515	508	509	32	0	
1	0	0	0	0	0	513	510	513	32	0	
2	0	0	0	0	0	513	510	511	32	0	
3	0	0	0	0	0	512	511	512	32	0	
4	0	0	0	0	0	513	513	510	32	0	
5	0	0	0	0	0	516	508	508	31	0	
6	0	0	0	0	0	515	511	513	31	0	
7	0	0	0	0	1	515	509	511	31	0	
8	0	0	0	0	0	515	510	508	31	0	
9	0	0	0	0	0	516	511	511	31	0	
10	0	0	0	0	0	514	508	510	31	0	
11	0	0	0	0	0	514	508	509	31	0	
12	0	0	0	0	0	515	510	508	32	0	
13	0	0	0	0	0	515	509	511	32	0	
14	0	0	0	0	0	514	508	511	32	0	
15	0	0	0	0	0	514	510	512	32	0	
0	0	0	0	0	0	512	509	512	31	0	
1	0	0	0	0	0	514	510	511	32	0	
2	0	0	0	0	0	513	510	512	32	0	
3	0	0	0	0	0	512	508	514	32	0	
4	0	0	0	0	0	512	508	512	32	0	
5	0	0	0	0	0	513	508	512	31	0	
6	0	0	0	0	0	514	511	513	31	0	
7	0	0	0	0	1	515	510	513	31	0	
8	0	0	0	0	0	515	510	509	31	0	
9	0	0	0	0	0	513	511	508	31	0	
10	0	0	0	0	0	515	510	511	31	0	
11	0	0	0	0	0	516	510	512	32	0	
12	0	0	0	0	0	513	510	512	31	0	
13	0	0	0	0	0	511	509	509	32	0	
14	0	0	0	0	0	511	510	508	31	0	
15	0	0	0	0	2	511	510	510	31	0	
0	0	0	0	0	0	513	511	509	32	0	
1	0	0	0	0	0	514	510	511	32	0	
2	0	0	0	0	0	514	510	512	32	0	
3	0	0	0	0	0	515	508	512	31	0	
4	0	0	0	0	0	519	508	511	31	0	
5	0	0	0	0	0	517	510	510	31	0	
6	0	0	0	0	0	515	508	510	31	0	
7	0	0	0	0	2	515	508	510	32	0	
8	0	0	0	0	0	516	510	511	32	0	
9	0	0	0	0	0	515	509	511	31	0	
10	0	0	0	0	0	515	509	511	32	0	
11	0	0	0	0	0	512	510	510	32	0	
12	0	0	0	0	0	514	509	511	32	0	
13	0	0	0	0	0	513	512	511	31	0	
14	0	0	0	0	0	511	512	514	32	0	
15	0	0	0	0	2	510	509	512	32	0	
0	0	0	0	0	0	513	512	513	32	0	
1	0	0	0	0	0	513	510	513	32	0	
2	0	0	0	0	0	513	509	513	32	0	
3	0	0	0	0	0	514	509	510	32	0	
4	0	0	0	0	0	514	508	511	31	0	
5	0	0	0	0	0	515	507	509	31	0	
6	0	0	0	0	0	516	507	509	31	0	
7	0	0	0	0	2	514	510	511	32	0	
8	0	0	0	0	0	516	509	513	31	0	
9	0	0	0	0	0	514	509	513	31	0	
10	0	0	0	0	0	513	510	511	32	0	
11	0	0	0	0	0	514	511	512	32	0	
12	0	0	0	0	0	513	512	510	32	0	
13	0	0	0	0	0	515	513	508	31	0	
14	0	0	0	0	0	512	510	509	31	0	
15	0	0	0	0	2	513	510	510	31	0	
0	0	0	0	0	0	512	513	511	32	0	
1	0	0	0	0	0	511	513	512	32	0	
2	0	0	0	0	0	512	509	512	32	0	
3	0	0	0	0	0	511	510	511	31	0	
4	0	0	0	0	0	513	508	511	31	0	
5	0	0	0	0	0	515	508	508	31	0	
6	0	0	0	0	0	514	507	510	32	0	
7	0	0	0	0	2	512	508	512	32	0	
8	0	0	0	0	0	514	507	514	32	0	
9	0	0	0	0	0	516	509	512	31	0	
10	0	0	0	0	0	515	508	511	31	0	
11	0	0	0	0	0	515	510	512	32	0	
12	0	0	0	0	0	512	514	513	32	0	
13	0	0	0	0	0	515	508	510	32	0	
14	0	0	0	0	0	516	509	512	32	0	
15	0	0	0	0	2	515	510	511	32	0	
0	0	0	0	0	0	514	508	511	32	0	
1	0	0	0	0	0	516	508	516	32	0	
2	0	0	0	0	0	516	509	512	32	0	
3	0	0	0	0	0	514	511	512	32	0	
4	0	0	0	0	0	512	509	512	32	0	
5	0	0	0	0	0	516	510	510	32	0	
6	0	0	0	0	0	515	511	510	31	0	
7	0	0	0	0	2	514	511	510	31	0	
8	0	0	0	0	0	513	514	510	32	0	
9	0	0	0	0	0	513	511	511	31	0	
10	0	0	0	0	0	514	509	510	31	0	
11	0	0	0	0	0	512	510	511	31	0	
12	0	0	0	0	0	512	512	512	31	0	
13	0	0	0	0	0	512	512	512	32	0	
14	0	0	0	0	0	513	510	512	31	0	
15	0	0	0	0	2	516	509	509	32	0	
0	0	0	0	0	0	512	508	508	31	0	
1	0	0	0	0	0	515	508	508	31	0	
2	0	0	0	0	0	512	505	513	32	0	
3	0	0	0	0	0	512	506	513	32	0	
4	0	0	0	0	0	514	508	511	32	0	
5	0	0	0	0	0	516	510	512	32	0	
6	0	0	0	0	0	516	510	511	31	0	
7	0	0	0	0	2	516	510	510	31	0	
8	0	0	0	0	0	513	510	512	32	0	
9	0	0	0	0	0	513	511	512	32	0	
10	0	0	0	0	0	510	509	510	31	0	
11	0	0	0	0	0	512	510	510	31	0	
12	0	0	0	0	0	513	508	511	31	0	
13	0	0	0	0	0	512	509	511	31	0	
14	0	0	0	0	0	513	510	511	32	0	
15	0	0	0	0	2	514	512	513	31	0	
0	0	0	0	0	0	512	509	512	32	0	
1	0	0	0	0	0	511	511	513	32	0	
2	0	0	0	0	0	512	510	512	32	0	
3	0	0	0	0	0	514	511	510	32	0	
4	0	0	0	0	0	514	508	511	31	0	
5	0	0	0	0	0	514	508	509	31	0	
6	0	0	0	0	0	514	510	509	31	0	
7	0	0	0	0	1	515	511	511	32	0	
8	0	0	0	0	0	515	511	510	31	0	
9	0	0	0	0	0	514	510	511	31	0	
10	0	0	0	0	0	515	511	510	31	0	
11	0	0	0	0	0	514	511	511	31	0	
12	0	0	0	0	0	516	511	513	32	0	
13	0	0	0	0	0	518	510	511	32	0	
14	0	0	0	0	0	519	509	510	32	0	
15	0	0	0	0	1	517	510	510	31	0	
0	0	0	0	0	0	516	508	512	31	0	
1	0	0	0	0	0	513	510	512	32	0	
2	0	0	0	0	0	513	509	513	32	0	
3	0	0	0	0	0	510	508	512	32	0	
4	0	0	0	0	0	512	507	511	32	0	
5	0	0	0	0	0	512	506	511	31	0	
6	0	0	0	0	0	512	508	512	31	0	
7	0	0	0	0	2	514	510	512	32	0	
8	0	0	0	0	0	513	509	512	32	0	
9	0	0	0	0	0	512	510	511	32	0	
10	0	0	0	0	0	512	510	511	32	0	
11	0	0	0	0	0	514	512	510	32	0	
12	0	0	0	0	0	513	510	509	31	0	
13	0	0	0	0	0	515	510	510	31	0	
14	0	0	0	0	0	511	512	511	32	0	
15	0	0	0	0	2	514	510	511	32	0	
0	0	0	0	0	0	514	508	509	31	0	
1	0	0	0	0	0	515	509	510	32	0	
2	0	0	0	0	0	516	509	510	31	0	
3	0	0	0	0	0	513	512	511	31	0	
4	0	0	0	0	0	512	511	511	31	0	
5	0	0	0	0	0	514	510	510	32	0	
6	0	0	0	0	0	514	510	510	31	0	
7	0	0	0	0	2	514	512	511	31	0	
8	0	0	0	0	0	509	509	511	31	0	
9	0	0	0	0	0	514	510	513	32	0	
10	0	0	0	0	0	514	509	514	32	0	
11	0	0	0	0	0	515	510	513	32	0	
12	0	0	0	0	0	515	510	511	31	0	
13	0	0	0	0	0	515	508	510	32	0	
14	0	0	0	0	0	513	508	510	32	0	
15	0	0	0	0	2	513	510	510	32	0	
0	0	0	0	0	0	515	511	511	32	0	
1	0	0	0	0	0	516	511	512	32	0	
2	0	0	0	0	0	517	509	510	32	0	
3	0	0	0	0	0	514	510	510	31	0	
4	0	0	0	0	0	514	507	510	31	0	
5	0	0	0	0	0	513	508	511	31	0	
6	0	0	0	0	0	510	508	512	31	0	
7	0	0	0	0	2	512	508	510	31	0	
8	0	0	0	0	0	514	510	512	32	0	
9	0	0	0	0	0	515	511	511	32	0	
10	0	0	0	0	0	513	510	510	32	0	
11	0	0	0	0	0	512	512	512	32	0	
12	0	0	0	0	0	512	512	511	31	0	
13	0	0	0	0	0	515	508	512	31	0	
14	0	0	0	0	0	515	507	511	32	0	
15	0	0	0	0	2	514	508	512	31	0	
0	0	0	0	0	0	513	510	511	31	0	
1	0	0	0	0	0	515	511	509	31	0	
2	0	0	0	0	0	511	511	511	32	0	
3	0	0	0	0	0	512	508	512	32	0	
4	0	0	0	0	0	513	508	511	31	0	
5	0	0	0	0	0	512	512	512	31	0	
6	0	0	0	0	0	514	510	512	31	0	
7	0	0	0	0	2	513	508	513	32	0	
8	0	0	0	0	0	514	509	511	32	0	
9	0	0	0	0	0	515	510	509	32	0	
10	0	0	0	0	0	517	507	511	32	0	
11	0	0	0	0	0	517	509	511	31	0	
12	0	0	0	0	0	516	511	511	32	0	
13	0	0	0	0	0	515	513	512	32	0	
14	0	0	0	0	0	515	511	509	32	0	
15	0	0	0	0	2	514	510	512	31	0	
0	0	0	0	0	0	515	511	512	31	0	
1	0	0	0	0	0	515	510	510	31	0	
2	0	0	0	0	0	514	507	511	31	0	
3	0	0	0	0	0	515	505	509	31	0	
4	0	0	0	0	0	515	508	513	32	0	
5	0	0	0	0	0	515	509	512	32	0	
6	0	0	0	0	0	513	508	512	31	0	
7	0	0	0	0	2	513	508	508	32	0	
8	0	0	0	0	0	511	508	509	31	0	
9	0	0	0	0	0	510	510	510	32	0	
10	0	0	0	0	0	513	511	512	32	0	
11	0	0	0	0	0	510	508	510	31	0	
12	0	0	0	0	0	512	509	512	32	0	
13	0	0	0	0	0	514	509	512	32	0	
14	0	0	0	0	0	514	511	514	32	0	
15	0	0	0	0	2	516	512	514	32	0	
0	0	0	0	0	0	516	512	515	32	0	
1	0	0	0	0	0	515	512	510	31	0	
2	0	0	0	0	0	515	508	511	31	0	
3	0	0	0	0	0	513	508	511	31	0	
4	0	0	0	0	0	514	509	511	31	0	
5	0	0	0	0	0	515	510	510	31	0	
6	0	0	0	0	0	513	509	510	32	0	
7	0	0	0	0	2	513	509	510	31	0	
8	0	0	0	0	0	514	508	509	32	0	
9	0	0	0	0	0	515	510	509	31	0	
10	0	0	0	0	0	514	511	511	32	0	
11	0	0	0	0	0	513	508	511	32	0	
12	0	0	0	0	0	512	511	509	32	0	
13	0	0	0	0	0	513	511	512	31	0	
14	0	0	0	0	0	513	509	511	31	0	
15	0	0	0	0	1	514	511	511	31	0	
0	0	0	0	0	0	512	509	512	32	0	
1	0	0	0	0	0	515	509	512	32	0	
2	0	0	0	0	0	515	511	513	31	0	
3	0	0	0	0	0	515	510	512	32	0	
4	0	0	0	0	0	515	509	512	31	0	
5	0	0	0	0	0	513	509	510	31	0	
6	0	0	0	0	0	515	508	512	31	0	
7	0	0	0	0	1	514	510	511	32	0	
8	0	0	0	0	0	512	510	514	32	0	
9	0	0	0	0	0	515	512	514	32	0	
10	0	0	0	0	0	517	511	513	32	0	
11	0	0	0	0	0	514	509	511	32	0	
12	0	0	0	0	0	514	509	511	31	0	
13	0	0	0	0	0	513	512	509	31	0	
14	0	0	0	0	0	513	510	510	31	0	
15	0	0	0	0	1	515	509	508	31	0	
0	0	0	0	0	0	515	510	508	31	0	
1	0	0	0	0	0	516	508	510	31	0	
2	0	0	0	0	0	516	509	509	31	0	
3	0	0	0	0	0	512	506	508	31	0	
4	0	0	0	0	0	510	507	513	32	0	
5	0	0	0	0	0	512	507	512	32	0	
6	0	0	0	0	0	514	508	512	32	0	
7	0	0	0	0	2	512	509	513	32	0	
8	0	0	0	0	0	510	511	513	32	0	
9	0	0	0	0	0	512	509	512	32	0	
10	0	0	0	0	0	513	508	508	31	0	
11	0	0	0	0	0	511	509	510	32	0	
12	0	0	0	0	0	515	511	511	31	0	
13	0	0	0	0	0	514	511	509	31	0	
14	0	0	0	0	0	515	510	512	31	0	
15	0	0	0	0	2	515	511	511	31	0	
0	0	0	0	0	0	514	509	509	31	0	
1	0	0	0	0	0	515	508	513	32	0	
2	0	0	0	0	0	514	511	514	31	0	
3	0	0	0	0	0	515	511	512	32	0	
4	0	0	0	0	0	514	510	512	31	0	
5	0	0	0	0	0	515	510	510	32	0	
6	0	0	0	0	0	512	510	512	31	0	
7	0	0	0	0	2	514	509	511	32	0	
8	0	0	0	0	0	513	510	512	32	0	
9	0	0	0	0	0	513	510	511	32	0	
10	0	0	0	0	0	513	508	510	32	0	
11	0	0	0	0	0	516	507	511	32	0	
12	0	0	0	0	0	513	506	511	31	0	
13	0	0	0	0	0	514	508	508	31	0	
14	0	0	0	0	0	513	510	511	31	0	
15	0	0	0	0	2	512	510	509	31	0	
0	0	0	0	0	0	512	510	510	31	0	
1	0	0	0	0	0	515	512	509	31	0	
2	0	0	0	0	0	514	512	510	31	0	
3	0	0	0	0	0	512	510	512	32	0	
4	0	0	0	0	0	515	511	511	31	0	
5	0	0	0	0	0	518	511	513	31	0	
6	0	0	0	0	0	515	511	510	32	0	
7	0	0	0	0	2	515	511	511	32	0	
8	0	0	0	0	0	515	511	507	32	0	
9	0	0	0	0	0	512	509	510	32	0	
10	0	0	0	0	0	512	510	511	31	0	
11	0	0	0	0	0	513	511	511	31	0	
12	0	0	0	0	0	514	510	514	32	0	
13	0	0	0	0	0	512	509	512	31	0	
14	0	0	0	0	0	513	510	511	32	0	
15	0	0	0	0	2	512	510	512	31	0	
0	0	0	0	0	0	517	511	512	31	0	
1	0	0	0	0	0	517	509	513	32	0	
2	0	0	0	0	0	516	508	510	31	0	
3	0	0	0	0	0	516	505	510	31	0	
4	0	0	0	0	0	514	507	508	31	0	
5	0	0	0	0	0	515	506	510	32	0	
6	0	0	0	0	0	516	508	512	32	0	
7	0	0	0	0	2	514	507	513	31	0	
8	0	0	0	0	0	512	510	510	31	0	
9	0	0	0	0	0	514	511	512	31	0	
10	0	0	0	0	0	513	512	513	32	0	
11	0	0	0	0	0	512	512	514	32	0	
12	0	0	0	0	0	512	511	510	32	0	
13	0	0	0	0	0	514	510	510	32	0	
14	0	0	0	0	0	510	509	508	31	0	
15	0	0	0	0	2	512	511	509	31	0	
0	0	0	0	0	0	511	509	511	32	0	
1	0	0	0	0	0	513	508	511	31	0	
2	0	0	0	0	0	515	508	515	32	0	
3	0	0	0	0	0	514	508	512	32	0	
4	0	0	0	0	0	516	509	512	31	0	
5	0	0	0	0	0	516	511	514	32	0	
6	0	0	0	0	0	516	511	510	32	0	
7	0	0	0	0	2	516	510	511	31	0	
8	0	0	0	0	0	513	510	509	31	0	
9	0	0	0	0	0	512	510	510	31	0	
10	0	0	0	0	0	514	510	512	32	0	
11	0	0	0	0	0	512	510	510	32	0	
12	0	0	0	0	0	515	508	513	32	0	
13	0	0	0	0	0	515	508	511	32	0	
14	0	0	0	0	0	515	509	511	31	0	
15	0	0	0	0	2	513	508	512	32	0	
0	0	0	0	0	0	513	508	512	32	0	
1	0	0	0	0	0	513	508	509	32	0	
2	0	0	0	0	0	513	508	511	31	0	
3	0	0	0	0	0	513	510	511	31	0	
4	0	0	0	0	0	515	509	511	31	0	
5	0	0	0	0	0	516	510	511	31	0	
6	0	0	0	0	0	513	508	512	32	0	
7	0	0	0	0	2	513	510	513	31	0	
8	0	0	0	0	0	515	510	509	31	0	
9	0	0	0	0	0	515	511	511	32	0	
10	0	0	0	0	0	514	512	513	32	0	
11	0	0	0	0	0	513	511	512	32	0	
12	0	0	0	0	0	512	513	509	32	0	
13	0	0	0	0	0	513	511	510	32	0	
14	0	0	0	0	0	512	510	509	31	0	
15	0	0	0	0	1	515	510	508	31	0	
0	0	0	0	0	0	517	510	512	32	0	
1	0	0	0	0	0	516	508	512	31	0	
2	0	0	0	0	0	515	510	511	32	0	
3	0	0	0	0	0	517	507	513	32	0	
4	0	0	0	0	0	514	510	512	31	0	
5	0	0	0	0	0	513	511	515	32	0	
6	0	0	0	0	0	515	512	511	31	0	
7	0	0	0	0	1	515	509	510	31	0	
8	0	0	0	0	0	512	511	510	31	0	
9	0	0	0	0	0	512	511	509	31	0	
10	0	0	0	0	0	511	509	508	31	0	
11	0	0	0	0	0	510	508	513	32	0	
12	0	0	0	0	0	512	510	513	32	0	
13	0	0	0	0	0	513	510	513	32	0	
14	0	0	0	0	0	513	508	511	32	0	
15	0	0	0	0	1	512	508	511	32	0	
0	0	0	0	0	0	511	505	511	32	0	
1	0	0	0	0	0	514	505	509	32	0	
2	0	0	0	0	0	515	504	512	31	0	
3	0	0	0	0	0	516	507	510	31	0	
4	0	0	0	0	0	516	509	511	31	0	
5	0	0	0	0	0	516	511	512	32	0	
6	0	0	0	0	0	516	511	512	31	0	
7	0	0	0	0	2	516	511	512	32	0	
8	0	0	0	0	0	515	511	511	32	0	
9	0	0	0	0	0	515	511	510	31	0	
10	0	0	0	0	0	514	510	509	31	0	
11	0	0	0	0	0	514	510	510	32	0	
12	0	0	0	0	0	513	510	509	32	0	
13	0	0	0	0	0	513	509	512	32	0	
14	0	0	0	0	0	512	510	513	32	0	
15	0	0	0	0	2	512	511	512	31	0	
0	0	0	0	0	0	511	513	512	32	0	
1	0	0	0	0	0	513	512	511	31	0	
2	0	0	0	0	0	513	510	512	31	0	
3	0	0	0	0	0	514	508	512	31	0	
4	0	0	0	0	0	513	509	512	31	0	
5	0	0	0	0	0	516	510	513	31	0	
6	0	0	0	0	0	515	508	512	32	0	
7	0	0	0	0	2	516	510	511	31	0	
8	0	0	0	0	0	513	509	512	31	0	
9	0	0	0	0	0	515	511	511	32	0	
10	0	0	0	0	0	515	512	512	31	0	
11	0	0	0	0	0	511	511	510	31	0	
12	0	0	0	0	0	513	511	511	32	0	
13	0	0	0	0	0	514	511	511	32	0	
14	0	0	0	0	0	512	511	510	32	0	
15	0	0	0	0	2	512	508	510	32	0	
0	0	0	0	0	0	512	507	509	32	0	
1	0	0	0	0	0	513	508	510	31	0	
2	0	0	0	0	0	512	508	509	31	0	
3	0	0	0	0	0	514	507	511	31	0	
4	0	0	0	0	0	515	508	513	32	0	
5	0	0	0	0	0	515	509	513	31	0	
6	0	0	0	0	0	518	508	512	31	0	
7	0	0	0	0	2	517	508	512	31	0	
8	0	0	0	0	0	513	510	510	31	0	
9	0	0	0	0	0	515	508	511	32	0	
10	0	0	0	0	0	514	507	512	32	0	
11	0	0	0	0	0	513	508	512	32	0	
12	0	0	0	0	0	513	510	509	32	0	
13	0	0	0	0	0	515	510	511	32	0	
14	0	0	0	0	0	515	511	510	32	0	
15	0	0	0	0	2	516	511	509	31	0	
0	0	0	0	0	0	515	511	511	31	0	
1	0	0	0	0	0	513	515	509	31	0	
2	0	0	0	0	0	513	514	510	31	0	
3	0	0	0	0	0	512	511	513	32	0	
4	0	0	0	0	0	513	513	512	31	0	
5	0	0	0	0	0	515	510	512	31	0	
6	0	0	0	0	0	513	511	510	32	0	
7	0	0	0	0	2	513	509	510	31	0	
8	0	0	0	0	0	514	508	511	31	0	
9	0	0	0	0	0	514	508	509	31	0	
10	0	0	0	0	0	513	508	512	32	0	
11	0	0	0	0	0	515	510	513	32	0	
12	0	0	0	0	0	515	513	515	32	0	
13	0	0	0	0	0	515	508	513	32	0	
14	0	0	0	0	0	515	508	513	32	0	
15	0	0	0	0	2	518	507	512	31	0	
0	0	0	0	0	0	517	508	509	31	0	
1	0	0	0	0	0	514	505	509	32	0	
2	0	0	0	0	0	514	508	511	32	0	
3	0	0	0	0	0	512	511	509	32	0	
4	0	0	0	0	0	512	510	511	31	0	
5	0	0	0	0	0	513	513	510	32	0	
6	0	0	0	0	0	514	511	509	32	0	
7	0	0	0	0	2	514	510	512	32	0	
8	0	0	0	0	0	512	508	513	32	0	
9	0	0	0	0	0	511	510	512	31	0	
10	0	0	0	0	0	512	509	509	31	0	
11	0	0	0	0	0	515	509	507	31	0	
12	0	0	0	0	0	515	509	511	31	0	
13	0	0	0	0	0	513	509	511	32	0	
14	0	0	0	0	0	512	509	511	32	0	
15	0	0	0	0	2	514	512	512	32	0	
0	0	0	0	0	0	513	510	510	32	0	
1	0	0	0	0	0	513	508	509	32	0	
2	0	0	0	0	0	512	509	508	31	0	
3	0	0	0	0	0	512	510	511	31	0	
4	0	0	0	0	0	515	505	512	32	0	
5	0	0	0	0	0	516	506	512	31	0	
6	0	0	0	0	0	515	508	510	31	0	
7	0	0	0	0	2	515	511	510	31	0	
8	0	0	0	0	0	515	513	508	31	0	
9	0	0	0	0	0	516	516	511	31	0	
10	0	0	0	0	0	517	512	509	31	0	
11	0	0	0	0	0	515	514	510	31	0	
12	0	0	0	0	0	511	513	511	31	0	
13	0	0	0	0	0	511	509	511	31	0	
14	0	0	0	0	0	513	509	510	32	0	
15	0	0	0	0	1	515	510	511	32	0	
0	0	0	0	0	0	512	510	513	32	0	
1	0	0	0	0	0	512	510	512	32	0	
2	0	0	0	0	0	514	509	513	32	0	
3	0	0	0	0	0	515	510	514	32	0	
4	0	0	0	0	0	511	510	513	31	0	
5	0	0	0	0	0	514	510	511	31	0	
6	0	0	0	0	0	516	509	512	32	0	
7	0	0	0	0	1	515	510	511	32	0	
8	0	0	0	0	0	515	512	511	32	0	
9	0	0	0	0	0	514	510	512	32	0	
10	0	0	0	0	0	512	508	513	31	0	
11	0	0	0	0	0	513	508	512	31	0	
12	0	0	0	0	0	513	508	514	31	0	
13	0	0	0	0	0	515	510	514	32	0	
14	0	0	0	0	0	518	505	514	32	0	
15	0	0	0	0	2	519	508	515	32	0	
0	0	0	0	0	0	516	510	512	32	0	
1	0	0	0	0	0	515	508	509	32	0	
2	0	0	0	0	0	512	509	506	31	0	
3	0	0	0	0	0	508	510	504	31	0	
4	0	0	0	0	0	510	507	508	31	0	
5	0	0	0	0	0	506	505	510	31	0	
6	0	0	0	0	0	507	506	512	31	0	
7	0	0	0	0	2	509	504	511	31	0	
8	0	0	0	0	0	510	508	512	31	0	
9	0	0	0	0	0	514	509	510	32	0	
10	0	0	0	0	0	516	514	513	32	0	
11	0	0	0	0	0	514	512	515	32	0	
12	0	0	0	0	0	515	513	511	32	0	
13	0	0	0	0	0	517	511	511	32	0	
14	0	0	0	0	0	519	509	511	32	0	
15	0	0	0	0	2	519	510	512	31	0	
0	0	0	0	0	0	518	512	511	32	0	
1	0	0	0	0	0	518	515	511	32	0	
2	0	0	0	0	0	515	513	513	32	0	
3	0	0	0	0	0	517	513	513	32	0	
4	0	0	0	0	0	519	513	512	32	0	
5	0	0	0	0	0	518	512	510	32	0	
6	0	0	0	0	0	517	512	506	32	0	
7	0	0	0	0	2	515	509	508	31	0	
8	0	0	0	0	0	513	504	508	31	0	
9	0	0	0	0	0	508	505	510	31	0	
10	0	0	0	0	0	509	506	508	31	0	
11	0	0	0	0	0	506	510	509	31	0	
12	0	0	0	0	0	505	510	512	31	0	
13	0	0	0	0	0	507	509	515	32	0	
14	0	0	0	0	0	510	513	513	32	0	
15	0	0	0	0	2	512	513	513	32	0	
0	0	0	0	0	0	515	512	510	32	0	
1	0	0	0	0	0	515	511	512	32	0	
2	0	0	0	0	0	516	511	512	32	0	
3	0	0	0	0	0	515	510	512	31	0	
4	0	0	0	0	0	518	508	511	32	0	
5	0	0	0	0	0	519	508	513	32	0	
6	0	0	0	0	0	516	507	509	31	0	
7	0	0	0	0	2	515	505	505	31	0	
8	0	0	0	0	0	516	507	505	32	0	
9	0	0	0	0	0	519	510	511	31	0	
10	0	0	0	0	0	519	510	513	31	0	
11	0	0	0	0	0	517	511	514	31	0	
12	0	0	0	0	0	516	508	512	31	0	
13	0	0	0	0	0	511	509	508	31	0	
14	0	0	0	0	0	504	507	506	31	0	
15	0	0	0	0	2	502	503	507	31	0	
0	0	0	0	0	0	502	506	511	31	0	
1	0	0	0	0	0	506	508	512	31	0	
2	0	0	0	0	0	508	508	512	32	0	
3	0	0	0	0	0	513	508	512	32	0	
4	0	0	0	0	0	516	507	514	32	0	
5	0	0	0	0	0	518	513	514	32	0	
6	0	0	0	0	0	515	514	516	32	0	
7	0	0	0	0	2	520	512	513	32	0	
8	0	0	0	0	0	526	510	515	32	0	
9	0	0	0	0	0	524	510	512	32	0	
10	0	0	0	0	0	522	509	507	32	0	
11	0	0	0	0	0	515	508	507	31	0	
12	0	0	0	0	0	511	510	507	31	0	
13	0	0	0	0	0	510	511	509	31	0	
14	0	0	0	0	0	507	515	511	31	0	
15	0	0	0	0	2	512	513	513	31	0	
0	0	0	0	0	0	513	512	513	32	0	
1	0	0	0	0	0	510	511	512	32	0	
2	0	0	0	0	0	509	512	509	31	0	
3	0	0	0	0	0	510	511	512	31	0	
4	0	0	0	0	0	512	510	511	32	0	
5	0	0	0	0	0	515	515	510	32	0	
6	0	0	0	0	0	517	514	509	32	0	
7	0	0	0	0	2	518	509	511	32	0	
8	0	0	0	0	0	522	508	511	32	0	
9	0	0	0	0	0	518	509	511	32	0	
10	0	0	0	0	0	517	512	513	31	0	
11	0	0	0	0	0	513	506	515	31	0	
12	0	0	0	0	0	510	502	508	31	0	
13	0	0	0	0	0	509	507	510	31	0	
14	0	0	0	0	0	512	504	508	31	0	
15	0	0	0	0	2	514	506	510	32	0	
0	0	0	0	0	0	516	508	512	32	0	
1	0	0	0	0	0	519	511	512	32	0	
2	0	0	0	0	0	519	510	511	32	0	
3	0	0	0	0	0	519	510	511	32	0	
4	0	0	0	0	0	518	509	511	32	0	
5	0	0	0	0	0	512	504	511	31	0	
6	0	0	0	0	0	506	508	511	31	0	
7	0	0	0	0	1	509	505	514	32	0	
8	0	0	0	0	0	511	506	514	32	0	
9	0	0	0	0	0	514	514	513	32	0	
10	0	0	0	0	0	513	515	510	32	0	
11	0	0	0	0	0	511	512	504	31	0	
12	0	0	0	0	0	508	511	508	31	0	
13	0	0	0	0	0	505	511	506	31	0	
14	0	0	0	0	0	508	513	510	31	0	
15	0	0	0	0	1	523	510	514	32	0	
0	0	0	0	0	0	527	507	512	32	0	
1	0	0	0	0	0	526	510	510	32	0	
2	0	0	0	0	0	523	517	507	32	0	
3	0	0	0	0	0	509	516	508	31	0	
4	0	0	0	0	0	503	511	511	31	0	
5	0	0	0	0	0	504	510	513	31	0	
6	0	0	0	0	0	504	507	513	31	0	
7	0	0	0	0	1	508	507	515	31	0	
8	0	0	0	0	0	515	508	514	32	0	
9	0	0	0	0	0	515	508	515	32	0	
10	0	0	0	0	0	520	507	520	32	0	
11	0	0	0	0	0	526	510	515	32	0	
12	0	0	0	0	0	524	512	511	32	0	
13	0	0	0	0	0	517	512	505	31	0	
14	0	0	0	0	0	513	509	502	31	0	
15	0	0	0	0	2	512	506	507	31	0	
0	0	0	0	0	0	511	507	510	31	0	
1	0	0	0	0	0	518	504	515	32	0	
2	0	0	0	0	0	526	506	518	32	0	
3	0	0	0	0	0	524	506	515	32	0	
4	0	0	0	0	0	512	509	507	32	0	
5	0	0	0	0	0	503	512	499	31	0	
6	0	0	0	0	0	497	515	507	31	0	
7	0	0	0	0	2	496	513	517	31	0	
8	0	0	0	0	0	500	508	519	32	0	
9	0	0	0	0	0	506	508	516	32	0	
10	0	0	0	0	0	509	510	512	31	0	
11	0	0	0	0	0	512	512	508	31	0	
12	0	0	0	0	0	515	511	509	31	0	
13	0	0	0	0	0	516	507	510	32	0	
14	0	0	0	0	0	523	508	511	31	0	
15	0	0	0	0	2	528	509	511	31	0	
0	0	0	0	0	0	523	510	510	32	0	
1	0	0	0	0	0	522	512	510	32	0	
2	0	0	0	0	0	516	512	509	32	0	
3	0	0	0	0	0	511	514	511	31	0	
4	0	0	0	0	0	512	516	516	31	0	
5	0	0	0	0	0	513	508	513	31	0	
6	0	0	0	0	0	515	505	512	32	0	
7	0	0	0	0	2	518	505	512	32	0	
8	0	0	0	0	0	516	506	510	32	0	
9	0	0	0	0	0	524	505	517	32	0	
10	0	0	0	0	0	532	507	514	32	0	
11	0	0	0	0	0	524	508	509	31	0	
12	0	0	0	0	0	512	513	503	31	0	
13	0	0	0	0	0	501	513	503	31	0	
14	0	0	0	0	0	500	509	511	31	0	
15	0	0	0	0	2	497	510	511	31	0	
0	0	0	0	0	0	504	509	510	31	0	
1	0	0	0	0	0	508	508	512	31	0	
2	0	0	0	0	0	508	510	512	32	0	
3	0	0	0	0	0	508	508	510	32	0	
4	0	0	0	0	0	513	510	511	32	0	
5	0	0	0	0	0	515	508	513	32	0	
6	0	0	0	0	0	519	508	512	32	0	
7	0	0	0	0	2	519	512	510	31	0	
8	0	0	0	0	0	520	512	514	32	0	
9	0	0	0	0	0	519	508	512	32	0	
10	0	0	0	0	0	518	509	508	31	0	
11	0	0	0	0	0	518	509	506	31	0	
12	0	0	0	0	0	514	509	509	31	0	
13	0	0	0	0	0	510	512	512	31	0	
14	0	0	0	0	0	512	513	515	31	0	
15	0	0	0	0	2	516	512	515	32	0	
0	0	0	0	0	0	519	510	513	31	0	
1	0	0	0	0	0	517	511	514	32	0	
2	0	0	0	0	0	518	510	514	32	0	
3	0	0	0	0	0	516	504	511	32	0	
4	0	0	0	0	0	513	507	512	32	0	
5	0	0	0	0	0	511	505	510	32	0	
6	0	0	0	0	0	511	505	510	32	0	
7	0	0	0	0	2	512	508	513	32	0	
8	0	0	0	0	0	512	512	510	32	0	
9	0	0	0	0	0	513	512	506	31	0	
10	0	0	0	0	0	511	511	508	31	0	
11	0	0	0	0	0	510	514	511	31	0	
12	0	0	0	0	0	515	518	512	31	0	
13	0	0	0	0	0	518	508	511	32	0	
14	0	0	0	0	0	519	505	510	32	0	
15	0	0	0	0	2	519	510	511	32	0	
0	0	0	0	0	0	521	512	511	31	0	
1	0	0	0	0	0	515	515	509	31	0	
2	0	0	0	0	0	512	511	511	31	0	
3	0	0	0	0	0	512	508	511	31	0	
4	0	0	0	0	0	510	508	509	31	0	
5	0	0	0	0	0	513	505	508	31	0	
6	0	0	0	0	0	512	508	510	31	0	
7	0	0	0	0	2	513	508	509	32	0	
8	0	0	0	0	0	511	508	513	32	0	
9	0	0	0	0	0	511	507	515	32	0	
10	0	0	0	0	0	512	512	515	32	0	
11	0	0	0	0	0	515	511	514	31	0	
12	0	0	0	0	0	513	508	509	31	0	
13	0	0	0	0	0	513	508	509	32	0	
14	0	0	0	0	0	512	507	509	32	0	
15	0	0	0	0	2	516	508	510	32	0	
0	0	0	0	0	0	516	512	510	32	0	
1	0	0	0	0	0	514	507	512	32	0	
2	0	0	0	0	0	515	508	513	32	0	
3	0	0	0	0	0	515	510	512	32	0	
4	0	0	0	0	0	519	510	512	32	0	
5	0	0	0	0	0	518	509	516	32	0	
6	0	0	0	0	0	514	514	514	32	0	
7	0	0	0	0	1	513	510	511	32	0	
8	0	0	0	0	0	508	510	505	32	0	
9	0	0	0	0	0	510	512	505	31	0	
10	0	0	0	0	0	512	511	507	31	0	
11	0	0	0	0	0	512	508	507	31	0	
12	0	0	0	0	0	513	504	511	31	0	
13	0	0	0	0	0	513	504	514	32	0	
14	0	0	0	0	0	513	505	511	31	0	
15	0	0	0	0	1	513	511	510	31	0	
0	0	0	0	0	0	515	511	513	32	0	
1	0	0	0	0	0	512	511	510	32	0	
2	0	0	0	0	0	514	514	512	32	0	
3	0	0	0	0	0	514	512	511	32	0	
4	0	0	0	0	0	516	514	514	32	0	
5	0	0	0	0	0	517	510	515	32	0	
6	0	0	0	0	0	516	511	515	32	0	
7	0	0	0	0	1	513	511	513	31	0	
8	0	0	0	0	0	516	512	515	32	0	
9	0	0	0	0	0	515	505	512	32	0	
10	0	0	0	0	0	517	504	511	32	0	
11	0	0	0	0	0	516	511	511	32	0	
12	0	0	0	0	0	512	515	510	31	0	
13	0	0	0	0	0	509	511	512	31	0	
14	0	0	0	0	0	506	511	511	31	0	
15	0	0	0	0	2	508	511	510	31	0	
0	0	0	0	0	0	509	508	513	32	0	
1	0	0	0	0	0	510	504	512	32	0	
2	0	0	0	0	0	510	506	511	31	0	
3	0	0	0	0	0	515	504	510	31	0	
4	0	0	0	0	0	513	506	512	31	0	
5	0	0	0	0	0	515	506	510	31	0	
6	0	0	0	0	0	521	508	513	32	0	
7	0	0	0	0	2	519	510	508	31	0	
8	0	0	0	0	0	516	507	510	31	0	
9	0	0	0	0	0	517	509	507	31	0	
10	0	0	0	0	0	519	510	507	31	0	
11	0	0	0	0	0	518	512	511	32	0	
12	0	0	0	0	0	513	510	510	32	0	
13	0	0	0	0	0	508	511	512	32	0	
14	0	0	0	0	0	507	512	510	31	0	
15	0	0	0	0	2	510	514	510	31	0	
0	0	0	0	0	0	510	512	511	32	0	
1	0	0	0	0	0	512	512	513	31	0	
2	0	0	0	0	0	514	512	514	31	0	
3	0	0	0	0	0	515	510	514	32	0	
4	0	0	0	0	0	516	508	513	31	0	
5	0	0	0	0	0	518	509	512	32	0	
6	0	0	0	0	0	518	510	512	32	0	
7	0	0	0	0	2	515	509	513	31	0	
8	0	0	0	0	0	516	509	509	31	0	
9	0	0	0	0	0	513	508	509	32	0	
10	0	0	0	0	0	516	508	509	32	0	
11	0	0	0	0	0	513	510	511	32	0	
12	0	0	0	0	0	512	513	512	32	0	
13	0	0	0	0	0	513	511	514	32	0	
14	0	0	0	0	0	516	510	513	31	0	
15	0	0	0	0	2	515	510	519	32	0	
0	0	0	0	0	0	512	507	524	31	0	
1	0	0	0	0	0	513	509	518	31	0	
2	0	0	0	0	0	512	508	512	31	0	
3	0	0	0	0	0	514	511	503	32	0	
4	0	0	0	0	0	516	512	497	31	0	
5	0	0	0	0	0	519	513	493	31	0	
6	0	0	0	0	0	518	513	496	31	0	
7	0	0	0	0	2	519	510	500	31	0	
8	0	0	0	0	0	512	504	509	32	0	
9	0	0	0	0	0	508	508	515	31	0	
10	0	0	0	0	0	513	508	516	31	0	
11	0	0	0	0	0	510	510	520	32	0	
12	0	0	0	0	0	510	512	518	32	0	
13	0	0	0	0	0	509	510	515	32	0	
14	0	0	0	0	0	509	504	511	32	0	
15	0	0	0	0	2	513	508	510	32	0	
0	0	0	0	0	0	515	511	511	31	0	
1	0	0	0	0	0	516	509	509	31	0	
2	0	0	0	0	0	517	512	514	31	0	
3	0	0	0	0	0	514	512	514	32	0	
4	0	0	0	0	0	515	508	513	32	0	
5	0	0	0	0	0	517	509	513	32	0	
6	0	0	0	0	0	513	508	509	32	0	
7	0	0	0	0	2	515	509	510	31	0	
8	0	0	0	0	0	516	511	510	31	0	
9	0	0	0	0	0	514	509	512	31	0	
10	0	0	0	0	0	510	509	511	31	0	
11	0	0	0	0	0	511	510	514	32	0	
12	0	0	0	0	0	513	510	514	32	0	
13	0	0	0	0	0	513	511	512	32	0	
14	0	0	0	0	0	513	511	508	32	0	
15	0	0	0	0	2	513	510	509	32	0	
0	0	0	0	0	0	515	511	508	31	0	
1	0	0	0	0	0	515	508	511	31	0	
2	0	0	0	0	0	515	508	510	31	0	
3	0	0	0	0	0	515	513	512	31	0	
4	0	0	0	0	0	516	512	514	31	0	
5	0	0	0	0	0	515	512	512	31	0	
6	0	0	0	0	0	512	508	513	32	0	
7	0	0	0	0	2	511	509	512	32	0	
8	0	0	0	0	0	515	508	510	32	0	
9	0	0	0	0	0	517	511	509	31	0	
10	0	0	0	0	0	513	509	506	32	0	
11	0	0	0	0	0	513	509	508	32	0	
12	0	0	0	0	0	511	509	520	32	0	
13	0	0	0	0	0	513	510	531	32	0	
14	0	0	0	0	0	512	510	523	32	0	
15	0	0	0	0	2	514	510	514	32	0	
0	0	0	0	0	0	512	509	507	32	0	
1	0	0	0	0	0	515	507	500	31	0	
2	0	0	0	0	0	516	508	496	31	0	
3	0	0	0	0	0	516	508	495	31	0	
4	0	0	0	0	0	513	509	501	31	0	
5	0	0	0	0	0	513	508	509	32	0	
6	0	0	0	0	0	515	510	511	32	0	
7	0	0	0	0	1	514	509	511	32	0	
8	0	0	0	0	0	514	513	507	32	0	
9	0	0	0	0	0	515	511	512	32	0	
10	0	0	0	0	0	513	508	514	31	0	
11	0	0	0	0	0	512	510	519	32	0	
12	0	0	0	0	0	508	510	516	32	0	
13	0	0	0	0	0	511	510	515	32	0	
14	0	0	0	0	0	509	511	514	32	0	
15	0	0	0	0	1	512	509	513	32	0	
0	0	0	0	0	0	511	512	516	32	0	
1	0	0	0	0	0	514	513	515	31	0	
2	0	0	0	0	0	517	513	514	32	0	
3	0	0	0	0	0	516	511	511	31	0	
4	0	0	0	0	0	518	510	507	31	0	
5	0	0	0	0	0	519	509	508	31	0	
6	0	0	0	0	0	516	509	512	31	0	
7	0	0	0	0	2	518	508	512	31	0	
8	0	0	0	0	0	515	507	510	31	0	
9	0	0	0	0	0	513	508	508	31	0	
10	0	0	0	0	0	514	508	499	31	0	
11	0	0	0	0	0	517	508	497	31	0	
12	0	0	0	0	0	513	507	507	31	0	
13	0	0	0	0	0	510	508	512	31	0	
14	0	0	0	0	0	508	506	515	32	0	
15	0	0	0	0	2	512	507	517	32	0	
0	0	0	0	0	0	510	508	519	32	0	
1	0	0	0	0	0	510	508	519	32	0	
2	0	0	0	0	0	509	508	518	32	0	
3	0	0	0	0	0	515	509	519	32	0	
4	0	0	0	0	0	513	510	518	32	0	
5	0	0	0	0	0	515	512	513	32	0	
6	0	0	0	0	0	518	513	510	31	0	
7	0	0	0	0	2	516	513	507	31	0	
8	0	0	0	0	0	516	515	502	31	0	
9	0	0	0	0	0	516	513	502	31	0	
10	0	0	0	0	0	513	510	505	32	0	
11	0	0	0	0	0	515	509	511	32	0	
12	0	0	0	0	0	515	511	513	32	0	
13	0	0	0	0	0	509	508	515	32	0	
14	0	0	0	0	0	509	509	521	32	0	
15	0	0	0	0	2	513	505	518	32	0	
0	0	0	0	0	0	514	508	515	32	0	
1	0	0	0	0	0	514	509	510	31	0	
2	0	0	0	0	0	514	508	506	31	0	
3	0	0	0	0	0	516	511	504	31	0	
4	0	0	0	0	0	515	512	501	31	0	
5	0	0	0	0	0	516	511	503	32	0	
6	0	0	0	0	0	518	510	506	32	0	
7	0	0	0	0	2	517	508	509	32	0	
8	0	0	0	0	0	513	505	513	31	0	
9	0	0	0	0	0	508	511	511	31	0	
10	0	0	0	0	0	511	511	515	31	0	
11	0	0	0	0	0	512	511	515	31	0	
12	0	0	0	0	0	512	509	515	32	0	
13	0	0	0	0	0	513	508	513	32	0	
14	0	0	0	0	0	514	508	515	31	0	
15	0	0	0	0	2	513	511	516	32	0	
0	0	0	0	0	0	516	511	514	32	0	
1	0	0	0	0	0	514	509	515	32	0	
2	0	0	0	0	0	513	511	512	32	0	
3	0	0	0	0	0	515	508	511	32	0	
4	0	0	0	0	0	518	512	507	31	0	
5	0	0	0	0	0	521	511	506	31	0	
6	0	0	0	0	0	519	514	507	31	0	
7	0	0	0	0	2	518	515	509	32	0	
8	0	0	0	0	0	513	510	512	32	0	
9	0	0	0	0	0	510	511	512	31	0	
10	0	0	0	0	0	511	509	513	31	0	
11	0	0	0	0	0	512	506	511	31	0	
12	0	0	0	0	0	513	505	513	31	0	
13	0	0	0	0	0	509	506	516	32	0	
14	0	0	0	0	0	511	512	514	32	0	
15	0	0	0	0	2	514	509	512	32	0	
0	0	0	0	0	0	514	508	508	32	0	
1	0	0	0	0	0	513	508	508	31	0	
2	0	0	0	0	0	515	509	504	31	0	
3	0	0	0	0	0	512	510	507	31	0	
4	0	0	0	0	0	512	511	511	31	0	
5	0	0	0	0	0	512	511	514	32	0	
6	0	0	0	0	0	512	510	516	32	0	
7	0	0	0	0	2	517	510	514	32	0	
8	0	0	0	0	0	515	508	511	32	0	
9	0	0	0	0	0	515	506	511	32	0	
10	0	0	0	0	0	516	510	510	31	0	
11	0	0	0	0	0	517	507	506	32	0	
12	0	0	0	0	0	518	507	505	31	0	
13	0	0	0	0	0	519	510	506	31	0	
14	0	0	0	0	0	516	511	508	32	0	
15	0	0	0	0	2	514	509	511	32	0	
0	0	0	0	0	0	509	511	510	32	0	
1	0	0	0	0	0	508	511	512	31	0	
2	0	0	0	0	0	511	512	512	32	0	
3	0	0	0	0	0	511	512	513	32	0	
4	0	0	0	0	0	511	513	514	31	0	
5	0	0	0	0	0	513	512	510	32	0	
6	0	0	0	0	0	514	513	512	32	0	
7	0	0	0	0	2	516	513	511	32	0	
8	0	0	0	0	0	514	508	515	32	0	
9	0	0	0	0	0	513	508	516	32	0	
10	0	0	0	0	0	514	508	514	31	0	
11	0	0	0	0	0	514	508	513	31	0	
12	0	0	0	0	0	520	508	507	31	0	
13	0	0	0	0	0	519	512	505	31	0	
14	0	0	0	0	0	518	515	501	31	0	
15	0	0	0	0	1	519	511	503	31	0	
0	0	0	0	0	0	514	511	508	31	0	
1	0	0	0	0	0	509	509	512	31	0	
2	0	0	0	0	0	504	507	516	32	0	
3	0	0	0	0	0	504	504	518	32	0	
4	0	0	0	0	0	503	504	512	32	0	
5	0	0	0	0	0	509	510	517	31	0	
6	0	0	0	0	0	513	512	515	31	0	
7	0	0	0	0	1	520	509	515	32	0	
8	0	0	0	0	0	519	507	513	32	0	
9	0	0	0	0	0	516	509	511	32	0	
10	0	0	0	0	0	518	512	505	32	0	
11	0	0	0	0	0	519	513	500	31	0	
12	0	0	0	0	0	521	511	504	31	0	
13	0	0	0	0	0	520	512	509	31	0	
14	0	0	0	0	0	516	510	513	31	0	
15	0	0	0	0	0	519	507	508	31	0	
0	0	0	0	0	0	513	505	511	31	0	
1	0	0	0	0	0	512	506	511	31	0	
2	0	0	0	0	0	512	506	513	31	0	
3	0	0	0	0	0	512	509	518	32	0	
4	0	0	0	0	0	512	505	521	32	0	
5	0	0	0	0	0	511	508	513	32	0	
6	0	0	0	0	0	511	509	504	31	0	
7	0	0	0	0	2	509	510	507	31	0	
8	0	0	0	0	0	508	511	508	31	0	
9	0	0	0	0	0	510	508	512	32	0	
10	0	0	0	0	0	513	507	513	32	0	
11	0	0	0	0	0	519	508	511	32	0	
12	0	0	0	0	0	521	514	512	32	0	
13	0	0	0	0	0	521	516	512	31	0	
14	0	0	0	0	0	518	516	512	31	0	
15	0	0	0	0	2	512	511	508	32	0	
0	0	0	0	0	0	513	510	506	31	0	
1	0	0	0	0	0	511	511	513	31	0	
2	0	0	0	0	0	510	511	514	31	0	
3	0	0	0	0	0	510	512	515	31	0	
4	0	0	0	0	0	512	507	515	32	0	
5	0	0	0	0	0	513	505	520	32	0	
6	0	0	0	0	0	512	507	523	32	0	
7	0	0	0	0	2	511	508	526	32	0	
8	0	0	0	0	0	510	508	530	32	0	
9	0	0	0	0	0	513	511	514	32	0	
10	0	0	0	0	0	512	508	507	32	0	
11	0	0	0	0	0	515	505	499	32	0	
12	0	0	0	0	0	521	510	491	31	0	
13	0	0	0	0	0	520	511	480	31	0	
14	0	0	0	0	0	520	515	473	31	0	
15	0	0	0	0	2	513	512	499	31	0	
0	0	0	0	0	0	510	505	515	32	0	
1	0	0	0	0	0	514	509	513	31	0	
2	0	0	0	0	0	514	510	507	31	0	
3	0	0	0	0	0	512	509	508	31	0	
4	0	0	0	0	0	512	510	507	31	0	
5	0	0	0	0	0	513	509	513	32	0	
6	0	0	0	0	0	511	510	519	32	0	
7	0	0	0	0	2	513	510	519	32	0	
8	0	0	0	0	0	512	509	520	32	0	
9	0	0	0	0	0	513	510	516	31	0	
10	0	0	0	0	0	510	507	515	31	0	
11	0	0	0	0	0	512	508	511	31	0	
12	0	0	0	0	0	518	511	514	31	0	
13	0	0	0	0	0	517	512	518	32	0	
14	0	0	0	0	0	515	510	526	32	0	
15	0	0	0	0	2	515	510	526	32	0	
0	0	0	0	0	0	516	505	517	32	0	
1	0	0	0	0	0	518	508	512	32	0	
2	0	0	0	0	0	523	511	506	32	0	
3	0	0	0	0	0	515	510	509	32	0	
4	0	0	0	0	0	515	513	510	31	0	
5	0	0	0	0	0	510	512	511	31	0	
6	0	0	0	0	0	508	512	511	31	0	
7	0	0	0	0	2	511	510	496	32	0	
8	0	0	0	0	0	513	509	498	31	0	
9	0	0	0	0	0	512	509	506	31	0	
10	0	0	0	0	0	512	506	511	32	0	
11	0	0	0	0	0	512	502	518	32	0	
12	0	0	0	0	0	511	505	518	32	0	
13	0	0	0	0	0	513	510	515	31	0	
14	0	0	0	0	0	515	512	511	31	0	
15	0	0	0	0	2	515	508	503	31	0	
0	0	0	0	0	0	518	512	495	31	0	
1	0	0	0	0	0	515	511	508	31	0	
2	0	0	0	0	0	511	511	518	31	0	
3	0	0	0	0	0	513	508	518	31	0	
4	0	0	0	0	0	512	509	515	32	0	
5	0	0	0	0	0	511	508	516	32	0	
6	0	0	0	0	0	516	510	523	32	0	
7	0	0	0	0	2	510	510	517	32	0	
8	0	0	0	0	0	512	509	504	32	0	
9	0	0	0	0	0	518	509	495	31	0	
10	0	0	0	0	0	515	509	507	32	0	
11	0	0	0	0	0	514	511	507	32	0	
12	0	0	0	0	0	514	515	499	31	0	
13	0	0	0	0	0	517	510	509	31	0	
14	0	0	0	0	0	520	510	517	32	0	
15	0	0	0	0	2	522	512	509	31	0	
0	0	0	0	0	0	520	510	503	31	0	
1	0	0	0	0	0	514	511	501	31	0	
2	0	0	0	0	0	513	510	517	31	0	
3	0	0	0	0	0	508	509	531	32	0	
4	0	0	0	0	0	509	509	522	32	0	
5	0	0	0	0	0	508	509	515	32	0	
6	0	0	0	0	0	508	503	516	32	0	
7	0	0	0	0	2	512	506	522	32	0	
8	0	0	0	0	0	515	508	522	31	0	
9	0	0	0	0	0	515	514	518	32	0	
10	0	0	0	0	0	517	516	499	31	0	
11	0	0	0	0	0	521	518	495	31	0	
12	0	0	0	0	0	524	518	487	31	0	
13	0	0	0	0	0	517	512	487	32	0	
14	0	0	0	0	0	514	505	488	32	0	
15	0	0	0	0	1	512	504	498	32	0	
0	0	0	0	0	0	515	504	515	31	0	
1	0	0	0	0	0	517	504	524	31	0	
2	0	0	0	0	0	510	505	527	32	0	
3	0	0	0	0	0	507	504	523	32	0	
4	0	0	0	0	0	504	504	523	32	0	
5	0	0	0	0	0	506	505	526	31	0	
6	0	0	0	0	0	509	510	536	32	0	
7	0	0	0	0	1	513	515	531	31	0	
8	0	0	0	0	0	513	519	509	31	0	
9	0	0	0	0	0	514	515	501	32	0	
10	0	0	0	0	0	518	515	497	32	0	
11	0	0	0	0	0	520	512	493	32	0	
12	0	0	0	0	0	511	511	499	32	0	
13	0	0	0	0	0	517	512	493	31	0	
14	0	0	0	0	0	519	510	500	31	0	
15	0	0	0	0	1	513	505	517	31	0	
0	0	0	0	0	0	510	506	519	31	0	
1	0	0	0	0	0	506	506	519	31	0	
2	0	0	0	0	0	511	505	521	31	0	
3	0	0	0	0	0	513	510	525	31	0	
4	0	0	0	0	0	514	510	519	31	0	
5	0	0	0	0	0	509	509	526	32	0	
6	0	0	0	0	0	508	506	523	33	0	
7	0	0	0	0	2	514	507	505	32	0	
8	0	0	0	0	0	525	513	496	31	0	
9	0	0	0	0	0	529	516	499	31	0	
10	0	0	0	0	0	526	517	509	31	0	
11	0	0	0	0	0	516	512	507	32	0	
12	0	0	0	0	0	510	509	504	32	0	
13	0	0	0	0	0	513	510	498	31	0	
14	0	0	0	0	0	508	504	508	31	0	
15	0	0	0	0	2	508	502	515	32	0	
0	0	0	0	0	0	507	506	516	32	0	
1	0	0	0	0	0	513	508	515	31	0	
2	0	0	0	0	0	514	506	515	31	0	
3	0	0	0	0	0	519	512	512	31	0	
4	0	0	0	0	0	516	513	513	31	0	
5	0	0	0	0	0	513	513	515	32	0	
6	0	0	0	0	0	517	513	513	31	0	
7	0	0	0	0	2	523	513	513	31	0	
8	0	0	0	0	0	519	509	522	32	0	
9	0	0	0	0	0	518	508	511	32	0	
10	0	0	0	0	0	510	510	510	32	0	
11	0	0	0	0	0	508	509	513	32	0	
12	0	0	0	0	0	512	510	505	32	0	
13	0	0	0	0	0	512	509	501	32	0	
14	0	0	0	0	0	516	509	504	32	0	
15	0	0	0	0	2	519	510	499	31	0	
0	0	0	0	0	0	518	508	511	31	0	
1	0	0	0	0	0	516	511	519	31	0	
2	0	0	0	0	0	518	513	519	31	0	
3	0	0	0	0	0	508	512	525	31	0	
4	0	0	0	0	0	506	514	508	31	0	
5	0	0	0	0	0	512	513	507	31	0	
6	0	0	0	0	0	516	510	510	32	0	
7	0	0	0	0	2	514	509	509	32	0	
8	0	0	0	0	0	515	509	499	32	0	
9	0	0	0	0	0	516	511	499	31	0	
10	0	0	0	0	0	515	508	511	32	0	
11	0	0	0	0	0	511	508	518	32	0	
12	0	0	0	0	0	510	506	521	32	0	
13	0	0	0	0	0	511	504	525	32	0	
14	0	0	0	0	0	509	507	508	32	0	
15	0	0	0	0	2	518	510	489	31	0	
0	0	0	0	0	0	515	508	500	32	0	
1	0	0	0	0	0	511	507	516	32	0	
2	0	0	0	0	0	512	508	521	31	0	
3	0	0	0	0	0	516	513	515	31	0	
4	0	0	0	0	0	523	517	510	31	0	
5	0	0	0	0	0	517	511	514	31	0	
6	0	0	0	0	0	514	512	512	31	0	
7	0	0	0	0	2	511	511	509	31	0	
8	0	0	0	0	0	509	504	510	32	0	
9	0	0	0	0	0	509	502	514	33	0	
10	0	0	0	0	0	511	505	511	32	0	
11	0	0	0	0	0	516	508	513	32	0	
12	0	0	0	0	0	511	512	518	31	0	
13	0	0	0	0	0	509	512	515	31	0	
14	0	0	0	0	0	515	509	516	32	0	
15	0	0	0	0	2	520	509	510	31	0	
0	0	0	0	0	0	522	511	499	31	0	
1	0	0	0	0	0	508	515	498	31	0	
2	0	0	0	0	0	508	517	499	31	0	
3	0	0	0	0	0	511	512	508	32	0	
4	0	0	0	0	0	519	505	512	33	0	
5	0	0	0	0	0	519	504	519	32	0	
6	0	0	0	0	0	512	507	525	32	0	
7	0	0	0	0	2	511	508	521	31	0	
8	0	0	0	0	0	512	513	515	30	0	
9	0	0	0	0	0	516	512	505	30	0	
10	0	0	0	0	0	516	510	495	30	0	
11	0	0	0	0	0	518	512	506	31	0	
12	0	0	0	0	0	512	511	524	31	0	
13	0	0	0	0	0	510	510	529	32	0	
14	0	0	0	0	0	517	513	514	32	0	
15	0	0	0	0	2	518	509	508	32	0	
0	0	0	0	0	0	520	506	509	32	0	
1	0	0	0	0	0	520	512	505	31	0	
2	0	0	0	0	0	512	513	496	31	0	
3	0	0	0	0	0	505	510	518	32	0	
4	0	0	0	0	0	509	508	516	33	0	
5	0	0	0	0	0	509	504	511	33	0	
6	0	0	0	0	0	513	506	507	32	0	
7	0	0	0	0	2	511	507	503	31	0	
8	0	0	0	0	0	512	508	501	31	0	
9	0	0	0	0	0	513	508	509	31	0	
10	0	0	0	0	0	513	508	514	31	0	
11	0	0	0	0	0	512	512	519	31	0	
12	0	0	0	0	0	513	516	518	31	0	
13	0	0	0	0	0	515	512	513	31	0	
14	0	0	0	0	0	515	510	512	31	0	
15	0	0	0	0	1	518	511	513	31	0	
0	0	0	0	0	0	519	510	511	31	0	
1	0	0	0	0	0	514	510	513	31	0	
2	0	0	0	0	0	512	504	518	32	0	
3	0	0	0	0	0	512	505	514	32	0	
4	0	0	0	0	0	514	508	508	32	0	
5	0	0	0	0	0	510	506	512	32	0	
6	0	0	0	0	0	511	508	513	32	0	
7	0	0	0	0	1	518	509	511	31	0	
8	0	0	0	0	0	514	509	515	32	0	
9	0	0	0	0	0	515	513	507	31	0	
10	0	0	0	0	0	518	513	503	31	0	
11	0	0	0	0	0	515	513	509	31	0	
12	0	0	0	0	0	508	512	513	32	0	
13	0	0	0	0	0	512	512	508	32	0	
14	0	0	0	0	0	515	511	506	32	0	
15	0	0	0	0	2	515	513	504	31	0	
0	0	0	0	0	0	516	513	508	31	0	
1	0	0	0	0	0	514	507	512	32	0	
2	0	0	0	0	0	513	507	519	32	0	
3	0	0	0	0	0	508	506	519	32	0	
4	0	0	0	0	0	507	507	513	31	0	
5	0	0	0	0	0	508	505	513	32	0	
6	0	0	0	0	0	512	510	512	31	0	
7	0	0	0	0	2	512	509	511	31	0	
8	0	0	0	0	0	519	509	508	31	0	
9	0	0	0	0	0	519	508	508	32	0	
10	0	0	0	0	0	520	512	507	31	0	
11	0	0	0	0	0	519	510	508	31	0	
12	0	0	0	0	0	517	511	511	31	0	
13	0	0	0	0	0	513	510	513	32	0	
14	0	0	0	0	0	513	509	513	32	0	
15	0	0	0	0	2	517	509	513	32	0	
0	0	0	0	0	0	518	511	512	32	0	
1	0	0	0	0	0	515	510	511	32	0	
2	0	0	0	0	0	510	507	514	32	0	
3	0	0	0	0	0	509	508	511	32	0	
4	0	0	0	0	0	513	505	511	31	0	
5	0	0	0	0	0	515	507	508	32	0	
6	0	0	0	0	0	514	511	510	32	0	
7	0	0	0	0	2	510	519	512	32	0	
8	0	0	0	0	0	511	515	510	32	0	
9	0	0	0	0	0	516	513	512	32	0	
10	0	0	0	0	0	516	507	515	32	0	
11	0	0	0	0	0	512	502	512	32	0	
12	0	0	0	0	0	517	505	509	31	0	
13	0	0	0	0	0	520	510	509	31	0	
14	0	0	0	0	0	515	512	510	31	0	
15	0	0	0	0	2	516	513	510	31	0	
0	0	0	0	0	0	515	510	514	32	0	
1	0	0	0	0	0	509	506	515	32	0	
2	0	0	0	0	0	512	504	515	32	0	
3	0	0	0	0	0	510	507	514	32	0	
4	0	0	0	0	0	513	507	512	32	0	
5	0	0	0	0	0	513	510	516	32	0	
6	0	0	0	0	0	511	509	514	32	0	
7	0	0	0	0	2	513	511	510	31	0	
8	0	0	0	0	0	514	511	502	31	0	
9	0	0	0	0	0	512	511	504	31	0	
10	0	0	0	0	0	512	514	515	32	0	
11	0	0	0	0	0	517	515	515	32	0	
12	0	0	0	0	0	518	514	515	32	0	
13	0	0	0	0	0	518	508	508	32	0	
14	0	0	0	0	0	523	507	508	32	0	
15	0	0	0	0	2	520	509	511	32	0	
0	0	0	0	0	0	517	511	510	31	0	
1	0	0	0	0	0	512	509	510	31	0	
2	0	0	0	0	0	508	502	508	31	0	
3	0	0	0	0	0	504	507	504	30	0	
4	0	0	0	0	0	505	509	502	30	0	
5	0	0	0	0	0	507	508	504	30	0	
6	0	0	0	0	0	508	501	515	31	0	
7	0	0	0	0	2	510	505	510	32	0	
8	0	0	0	0	0	510	511	505	32	0	
9	0	0	0	0	0	515	507	505	32	0	
10	0	0	0	0	0	515	502	507	32	0	
11	0	0	0	0	0	513	506	514	32	0	
12	0	0	0	0	0	515	510	517	32	0	
13	0	0	0	0	0	519	512	515	32	0	
14	0	0	0	0	0	522	512	515	32	0	
15	0	0	0	0	2	521	512	514	32	0	
0	0	0	0	0	0	516	512	514	32	0	
1	0	0	0	0	0	518	514	514	32	0	
2	0	0	0	0	0	515	516	513	32	0	
3	0	0	0	0	0	512	514	517	32	0	
4	0	0	0	0	0	513	512	523	31	0	
5	0	0	0	0	0	515	509	526	32	0	
6	0	0	0	0	0	516	511	521	32	0	
7	0	0	0	0	2	516	507	514	32	0	
8	0	0	0	0	0	517	511	508	31	0	
9	0	0	0	0	0	512	509	513	32	0	
10	0	0	0	0	0	510	508	508	31	0	
11	0	0	0	0	0	511	510	496	31	0	
12	0	0	0	0	0	513	509	494	31	0	
13	0	0	0	0	0	511	510	495	31	0	
14	0	0	0	0	0	511	512	504	31	0	
15	0	0	0	0	2	512	512	514	32	0	
0	0	0	0	0	0	515	508	516	32	0	
1	0	0	0	0	0	517	510	514	32	0	
2	0	0	0	0	0	513	511	511	32	0	
3	0	0	0	0	0	510	508	512	32	0	
4	0	0	0	0	0	512	507	508	31	0	
5	0	0	0	0	0	514	507	508	31	0	
6	0	0	0	0	0	513	506	516	32	0	
7	0	0	0	0	1	512	504	527	32	0	
8	0	0	0	0	0	508	505	518	32	0	
9	0	0	0	0	0	512	507	505	32	0	
10	0	0	0	0	0	515	510	508	32	0	
11	0	0	0	0	0	516	509	507	32	0	
12	0	0	0	0	0	514	512	507	31	0	
13	0	0	0	0	0	516	512	507	32	0	
14	0	0	0	0	0	516	512	508	31	0	
15	0	0	0	0	1	514	511	509	32	0	
0	0	0	0	0	0	512	510	520	32	0	
1	0	0	0	0	0	516	507	534	32	0	
2	0	0	0	0	0	515	510	534	32	0	
3	0	0	0	0	0	511	511	519	32	0	
4	0	0	0	0	0	510	511	504	31	0	
5	0	0	0	0	0	515	512	491	31	0	
6	0	0	0	0	0	515	513	488	30	0	
7	0	0	0	0	1	516	510	490	31	0	
8	0	0	0	0	0	515	509	492	31	0	
9	0	0	0	0	0	517	509	500	32	0	
10	0	0	0	0	0	516	507	511	32	0	
11	0	0	0	0	0	512	506	524	32	0	
12	0	0	0	0	0	508	510	526	32	0	
13	0	0	0	0	0	510	511	519	31	0	
14	0	0	0	0	0	513	511	517	32	0	
15	0	0	0	0	2	512	510	516	32	0	
0	0	0	0	0	0	515	509	512	32	0	
1	0	0	0	0	0	518	504	511	31	0	
2	0	0	0	0	0	518	507	510	31	0	
3	0	0	0	0	0	517	512	522	31	0	
4	0	0	0	0	0	516	513	527	32	0	
5	0	0	0	0	0	512	513	525	32	0	
6	0	0	0	0	0	513	510	516	32	0	
7	0	0	0	0	2	514	514	507	32	0	
8	0	0	0	0	0	512	512	501	32	0	
9	0	0	0	0	0	513	516	499	31	0	
10	0	0	0	0	0	513	513	499	31	0	
11	0	0	0	0	0	514	510	506	31	0	
12	0	0	0	0	0	517	510	513	30	0	
13	0	0	0	0	0	518	510	526	31	0	
14	0	0	0	0	0	513	508	535	32	0	
15	0	0	0	0	2	507	505	539	33	0	
0	0	0	0	0	0	509	508	521	33	0	
1	0	0	0	0	0	512	506	501	32	0	
2	0	0	0	0	0	515	506	487	31	0	
3	0	0	0	0	0	515	508	481	30	0	
4	0	0	0	0	0	516	508	474	30	0	
5	0	0	0	0	0	515	505	483	30	0	
6	0	0	0	0	0	514	507	492	31	0	
7	0	0	0	0	2	511	507	501	32	0	
8	0	0	0	0	0	513	508	511	32	0	
9	0	0	0	0	0	513	505	518	32	0	
10	0	0	0	0	0	514	508	524	32	0	
11	0	0	0	0	0	512	508	524	32	0	
12	0	0	0	0	0	512	509	523	32	0	
13	0	0	0	0	0	514	513	522	32	0	
14	0	0	0	0	0	512	512	522	32	0	
15	0	0	0	0	2	511	511	518	32	0	
0	0	0	0	0	0	511	512	516	32	0	
1	0	0	0	0	0	515	511	513	32	0	
2	0	0	0	0	0	513	508	514	32	0	
3	0	0	0	0	0	516	510	513	32	0	
4	0	0	0	0	0	512	512	516	31	0	
5	0	0	0	0	0	513	512	519	32	0	
6	0	0	0	0	0	512	511	517	32	0	
7	0	0	0	0	2	515	507	515	32	0	
8	0	0	0	0	0	513	504	509	32	0	
9	0	0	0	0	0	516	506	508	32	0	
10	0	0	0	0	0	515	508	508	32	0	
11	0	0	0	0	0	516	509	504	31	0	
12	0	0	0	0	0	513	512	507	31	0	
13	0	0	0	0	0	511	515	514	31	0	
14	0	0	0	0	0	515	512	516	31	0	
15	0	0	0	0	2	513	508	525	31	0	
0	0	0	0	0	0	515	509	522	32	0	
1	0	0	0	0	0	513	510	516	31	0	
2	0	0	0	0	0	516	517	511	31	0	
3	0	0	0	0	0	517	515	500	31	0	
4	0	0	0	0	0	520	512	488	31	0	
5	0	0	0	0	0	516	505	495	32	0	
6	0	0	0	0	0	516	503	495	32	0	
7	0	0	0	0	2	516	507	498	32	0	
8	0	0	0	0	0	515	510	507	31	0	
9	0	0	0	0	0	515	513	510	31	0	
10	0	0	0	0	0	514	513	513	31	0	
11	0	0	0	0	0	512	509	518	31	0	
12	0	0	0	0	0	511	510	516	32	0	
13	0	0	0	0	0	511	508	518	32	0	
14	0	0	0	0	0	509	508	515	32	0	
15	0	0	0	0	2	510	505	517	32	0	
0	0	0	0	0	0	510	507	517	32	0	
1	0	0	0	0	0	511	507	517	32	0	
2	0	0	0	0	0	511	511	515	32	0	
3	0	0	0	0	0	515	509	515	32	0	
4	0	0	0	0	0	514	511	511	32	0	
5	0	0	0	0	0	512	509	511	32	0	
6	0	0	0	0	0	515	507	510	32	0	
7	0	0	0	0	2	514	508	511	32	0	
8	0	0	0	0	0	515	510	512	31	0	
9	0	0	0	0	0	514	509	512	32	0	
10	0	0	0	0	0	515	508	512	32	0	
11	0	0	0	0	0	515	510	512	32	0	
12	0	0	0	0	0	517	513	512	32	0	
13	0	0	0	0	0	518	508	512	31	0	
14	0	0	0	0	0	515	511	509	31	0	
15	0	0	0	0	2	513	510	509	31	0	
0	0	0	0	0	0	515	510	511	31	0	
1	0	0	0	0	0	514	511	510	31	0	
2	0	0	0	0	0	513	511	512	32	0	
3	0	0	0	0	0	513	510	511	32	0	
4	0	0	0	0	0	515	511	511	31	0	
5	0	0	0	0	0	513	511	508	31	0	
6	0	0	0	0	0	513	511	511	31	0	
7	0	0	0	0	1	512	508	511	31	0	
8	0	0	0	0	0	514	510	512	31	0	
9	0	0	0	0	0	515	511	511	31	0	
10	0	0	0	0	0	513	510	511	31	0	
11	0	0	0	0	0	513	511	511	31	0	
12	0	0	0	0	0	515	508	511	32	0	
13	0	0	0	0	0	515	509	512	31	0	
14	0	0	0	0	0	512	511	511	31	0	
15	0	0	0	0	1	512	508	509	32	0	
0	0	0	0	0	0	513	510	511	32	0	
1	0	0	0	0	0	513	511	512	32	0	
2	0	0	0	0	0	515	511	511	32	0	
3	0	0	0	0	0	514	509	515	32	0	
4	0	0	0	0	0	514	508	514	32	0	
5	0	0	0	0	0	514	509	513	31	0	
6	0	0	0	0	0	512	508	514	31	0	
7	0	0	0	0	1	514	510	512	32	0	
8	0	0	0	0	0	516	509	509	31	0	
9	0	0	0	0	0	515	512	509	31	0	
10	0	0	0	0	0	516	514	506	32	0	
11	0	0	0	0	0	519	512	505	31	0	
12	0	0	0	0	0	518	510	510	32	0	
13	0	0	0	0	0	518	516	511	32	0	
14	0	0	0	0	0	516	510	511	31	0	
15	0	0	0	0	2	512	510	513	31	0	
0	0	0	0	0	0	512	506	512	31	0	
1	0	0	0	0	0	510	505	512	31	0	
2	0	0	0	0	0	512	503	510	31	0	
3	0	0	0	0	0	513	505	506	32	0	
4	0	0	0	0	0	512	508	508	32	0	
5	0	0	0	0	0	511	509	510	32	0	
6	0	0	0	0	0	512	507	510	32	0	
7	0	0	0	0	2	513	510	511	31	0	
8	0	0	0	0	0	511	510	513	31	0	
9	0	0	0	0	0	512	508	512	31	0	
10	0	0	0	0	0	514	510	514	31	0	
11	0	0	0	0	0	515	508	515	32	0	
12	0	0	0	0	0	516	511	515	32	0	
13	0	0	0	0	0	517	508	512	32	0	
14	0	0	0	0	0	517	509	511	32	0	
15	0	0	0	0	2	518	510	513	31	0	
0	0	0	0	0	0	515	514	520	32	0	
1	0	0	0	0	0	512	513	519	32	0	
2	0	0	0	0	0	513	514	515	32	0	
3	0	0	0	0	0	512	510	509	32	0	
4	0	0	0	0	0	515	511	504	32	0	
5	0	0	0	0	0	513	511	498	31	0	
6	0	0	0	0	0	515	511	496	31	0	
7	0	0	0	0	2	513	509	503	32	0	
8	0	0	0	0	0	513	509	504	31	0	
9	0	0	0	0	0	513	508	513	32	0	
10	0	0	0	0	0	512	508	515	32	0	
11	0	0	0	0	0	512	506	518	32	0	
12	0	0	0	0	0	515	508	515	31	0	
13	0	0	0	0	0	514	509	514	31	0	
14	0	0	0	0	0	515	509	512	31	0	
15	0	0	0	0	2	515	509	511	32	0	
0	0	0	0	0	0	516	510	509	32	0	
1	0	0	0	0	0	511	513	509	32	0	
2	0	0	0	0	0	513	513	515	31	0	
3	0	0	0	0	0	513	512	523	31	0	
4	0	0	0	0	0	515	510	520	31	0	
5	0	0	0	0	0	515	511	513	31	0	
6	0	0	0	0	0	515	514	507	31	0	
7	0	0	0	0	2	515	511	502	31	0	
8	0	0	0	0	0	516	513	502	31	0	
9	0	0	0	0	0	512	509	500	31	0	
10	0	0	0	0	0	513	510	503	31	0	
11	0	0	0	0	0	514	509	507	31	0	
12	0	0	0	0	0	515	510	511	31	0	
13	0	0	0	0	0	515	507	511	31	0	
14	0	0	0	0	0	515	505	510	31	0	
15	0	0	0	0	2	513	507	515	31	0	
0	0	0	0	0	0	513	509	515	32	0	
1	0	0	0	0	0	515	509	517	32	0	
2	0	0	0	0	0	516	511	515	32	0	
3	0	0	0	0	0	514	512	513	32	0	
4	0	0	0	0	0	512	510	512	32	0	
5	0	0	0	0	0	515	510	513	32	0	
6	0	0	0	0	0	516	508	510	32	0	
7	0	0	0	0	2	515	505	511	31	0	
8	0	0	0	0	0	512	505	512	31	0	
9	0	0	0	0	0	511	505	515	31	0	
10	0	0	0	0	0	512	508	514	31	0	
11	0	0	0	0	0	514	511	510	32	0	
12	0	0	0	0	0	514	511	511	31	0	
13	0	0	0	0	0	515	513	508	31	0	
14	0	0	0	0	0	513	511	510	31	0	
15	0	0	0	0	2	512	513	510	31	0	
0	0	0	0	0	0	513	512	506	31	0	
1	0	0	0	0	0	514	511	504	31	0	
2	0	0	0	0	0	515	510	503	31	0	
3	0	0	0	0	0	515	511	508	31	0	
4	0	0	0	0	0	514	509	508	31	0	
5	0	0	0	0	0	514	509	510	32	0	
6	0	0	0	0	0	515	512	512	32	0	
7	0	0	0	0	2	515	511	513	32	0	
8	0	0	0	0	0	513	511	516	31	0	
9	0	0	0	0	0	511	509	516	32	0	
10	0	0	0	0	0	512	511	518	32	0	
11	0	0	0	0	0	511	508	513	32	0	
12	0	0	0	0	0	513	508	512	31	0	
13	0	0	0	0	0	514	509	514	32	0	
14	0	0	0	0	0	516	508	513	32	0	
15	0	0	0	0	2	516	510	513	31	0	
0	0	0	0	0	0	516	509	511	31	0	
1	0	0	0	0	0	515	508	509	31	0	
2	0	0	0	0	0	513	508	514	32	0	
3	0	0	0	0	0	515	508	513	32	0	
4	0	0	0	0	0	515	508	509	32	0	
5	0	0	0	0	0	512	509	511	32	0	
6	0	0	0	0	0	513	511	511	32	0	
7	0	0	0	0	1	513	513	511	32	0	
8	0	0	0	0	0	512	512	510	32	0	
9	0	0	0	0	0	513	510	507	31	0	
10	0	0	0	0	0	512	508	507	31	0	
11	0	0	0	0	0	514	507	508	31	0	
12	0	0	0	0	0	515	509	510	32	0	
13	0	0	0	0	0	515	510	513	32	0	
14	0	0	0	0	0	514	512	512	31	0	
15	0	0	0	0	1	515	511	510	31	0	
0	0	0	0	0	0	515	510	511	31	0	
1	0	0	0	0	0	517	508	512	31	0	
2	0	0	0	0	0	516	505	511	31	0	
3	0	0	0	0	0	515	505	512	32	0	
4	0	0	0	0	0	514	506	513	32	0	
5	0	0	0	0	0	515	510	514	32	0	
6	0	0	0	0	0	512	509	514	32	0	
7	0	0	0	0	2	514	510	514	32	0	
8	0	0	0	0	0	512	510	512	31	0	
9	0	0	0	0	0	512	508	508	31	0	
10	0	0	0	0	0	514	506	508	31	0	
11	0	0	0	0	0	513	508	508	32	0	
12	0	0	0	0	0	514	512	509	31	0	
13	0	0	0	0	0	513	511	510	31	0	
14	0	0	0	0	0	514	511	511	32	0	
15	0	0	0	0	2	515	510	512	32	0	
0	0	0	0	0	0	515	512	513	32	0	
1	0	0	0	0	0	514	514	513	32	0	
2	0	0	0	0	0	515	513	511	32	0	
3	0	0	0	0	0	516	510	512	31	0	
4	0	0	0	0	0	515	513	511	31	0	
5	0	0	0	0	0	513	513	510	31	0	
6	0	0	0	0	0	512	510	509	31	0	
7	0	0	0	0	2	512	511	510	31	0	
8	0	0	0	0	0	510	509	511	31	0	
9	0	0	0	0	0	511	509	512	31	0	
10	0	0	0	0	0	512	507	515	32	0	
11	0	0	0	0	0	514	506	511	32	0	
12	0	0	0	0	0	513	507	515	32	0	
13	0	0	0	0	0	510	508	512	32	0	
14	0	0	0	0	0	513	507	510	32	0	
15	0	0	0	0	2	516	509	511	32	0	
0	0	0	0	0	0	515	511	511	32	0	
1	0	0	0	0	0	514	511	510	31	0	
2	0	0	0	0	0	517	512	509	32	0	
3	0	0	0	0	0	517	513	508	31	0	
4	0	0	0	0	0	516	510	512	31	0	
5	0	0	0	0	0	514	510	510	31	0	
6	0	0	0	0	0	514	510	512	32	0	
7	0	0	0	0	2	514	513	511	32	0	
8	0	0	0	0	0	512	511	510	32	0	
9	0	0	0	0	0	511	511	513	32	0	
10	0	0	0	0	0	514	510	511	32	0	
11	0	0	0	0	0	516	508	511	32	0	
12	0	0	0	0	0	516	510	513	32	0	
13	0	0	0	0	0	520	510	509	31	0	
14	0	0	0	0	0	519	510	509	31	0	
15	0	0	0	0	2	516	506	508	31	0	
0	0	0	0	0	0	513	506	509	31	0	
1	0	0	0	0	0	513	505	508	31	0	
2	0	0	0	0	0	512	507	509	31	0	
3	0	0	0	0	0	511	505	508	31	0	
4	0	0	0	0	0	510	504	507	31	0	
5	0	0	0	0	0	510	506	510	32	0	
6	0	0	0	0	0	513	507	514	32	0	
7	0	0	0	0	2	513	509	515	32	0	
8	0	0	0	0	0	513	511	515	32	0	
9	0	0	0	0	0	512	511	514	32	0	
10	0	0	0	0	0	515	511	513	32	0	
11	0	0	0	0	0	516	512	512	32	0	
12	0	0	0	0	0	515	510	511	32	0	
13	0	0	0	0	0	516	512	511	32	0	
14	0	0	0	0	0	515	511	508	31	0	
15	0	0	0	0	2	514	512	507	31	0	
0	0	0	0	0	0	513	511	511	31	0	
1	0	0	0	0	0	512	509	513	31	0	
2	0	0	0	0	0	513	515	516	32	0	
3	0	0	0	0	0	511	518	517	32	0	
4	0	0	0	0	0	512	517	515	32	0	
5	0	0	0	0	0	515	515	513	31	0	
6	0	0	0	0	0	514	507	509	31	0	
7	0	0	0	0	2	513	504	506	31	0	
8	0	0	0	0	0	515	502	505	31	0	
9	0	0	0	0	0	513	502	506	31	0	
10	0	0	0	0	0	513	501	510	31	0	
11	0	0	0	0	0	513	506	509	31	0	
12	0	0	0	0	0	512	508	509	32	0	
13	0	0	0	0	0	515	510	512	32	0	
14	0	0	0	0	0	515	514	512	32	0	
15	0	0	0	0	2	516	513	512	32	0	
0	0	0	0	0	0	515	512	512	32	0	
1	0	0	0	0	0	516	511	512	32	0	
2	0	0	0	0	0	519	510	512	32	0	
3	0	0	0	0	0	518	509	511	32	0	
4	0	0	0	0	0	513	507	509	32	0	
5	0	0	0	0	0	513	506	508	32	0	
6	0	0	0	0	0	510	505	510	32	0	
7	0	0	0	0	2	508	509	510	32	0	
8	0	0	0	0	0	507	512	512	31	0	
9	0	0	0	0	0	511	515	517	32	0	
10	0	0	0	0	0	514	515	512	32	0	
11	0	0	0	0	0	516	513	512	32	0	
12	0	0	0	0	0	519	508	513	32	0	
13	0	0	0	0	0	518	509	508	31	0	
14	0	0	0	0	0	514	508	510	31	0	
15	0	0	0	0	0	511	509	512	31	0	
0	0	0	0	0	0	508	507	512	31	0	
1	0	0	0	0	0	510	508	513	31	0	
2	0	0	0	0	0	515	509	510	31	0	
3	0	0	0	0	0	515	506	510	31	0	
4	0	0	0	0	0	517	508	509	32	0	
5	0	0	0	0	0	517	509	510	32	0	
6	0	0	0	0	0	517	509	510	32	0	
7	0	0	0	0	1	515	508	510	32	0	
8	0	0	0	0	0	516	507	510	32	0	
9	0	0	0	0	0	514	510	510	31	0	
10	0	0	0	0	0	515	507	512	31	0	
11	0	0	0	0	0	514	509	511	31	0	
12	0	0	0	0	0	513	511	514	32	0	
13	0	0	0	0	0	510	511	515	31	0	
14	0	0	0	0	0	513	510	511	32	0	
15	0	0	0	0	1	514	511	508	31	0	
0	0	0	0	0	0	513	512	508	31	0	
1	0	0	0	0	0	516	512	510	32	0	
2	0	0	0	0	0	515	512	511	32	0	
3	0	0	0	0	0	514	509	510	31	0	
4	0	0	0	0	0	511	510	509	32	0	
5	0	0	0	0	0	509	511	512	31	0	
6	0	0	0	0	0	511	510	513	31	0	
7	0	0	0	0	2	512	512	511	31	0	
8	0	0	0	0	0	515	511	510	31	0	
9	0	0	0	0	0	516	508	511	32	0	
10	0	0	0	0	0	519	507	513	32	0	
11	0	0	0	0	0	517	509	515	32	0	
12	0	0	0	0	0	514	511	515	31	0	
13	0	0	0	0	0	511	516	511	31	0	
14	0	0	0	0	0	512	517	510	32	0	
15	0	0	0	0	2	511	513	511	31	0	
0	0	0	0	0	0	514	508	510	32	0	
1	0	0	0	0	0	513	505	508	32	0	
2	0	0	0	0	0	515	500	508	31	0	
3	0	0	0	0	0	512	504	506	31	0	
4	0	0	0	0	0	510	508	510	31	0	
5	0	0	0	0	0	513	509	510	31	0	
6	0	0	0	0	0	509	510	511	32	0	
7	0	0	0	0	2	511	509	510	32	0	
8	0	0	0	0	0	514	511	512	31	0	
9	0	0	0	0	0	515	510	511	31	0	
10	0	0	0	0	0	515	508	510	32	0	
11	0	0	0	0	0	517	508	513	32	0	
12	0	0	0	0	0	513	508	513	32	0	
13	0	0	0	0	0	513	512	513	32	0	
14	0	0	0	0	0	513	507	514	32	0	
15	0	0	0	0	2	515	510	515	32	0	
0	0	0	0	0	0	516	511	513	31	0	
1	0	0	0	0	0	516	514	512	31	0	
2	0	0	0	0	0	517	511	511	31	0	
3	0	0	0	0	0	517	510	511	31	0	
4	0	0	0	0	0	512	509	512	32	0	
5	0	0	0	0	0	513	507	511	32	0	
6	0	0	0	0	0	512	508	512	32	0	
7	0	0	0	0	2	513	507	512	32	0	
8	0	0	0	0	0	515	511	510	32	0	
9	0	0	0	0	0	513	515	512	32	0	
10	0	0	0	0	0	512	512	511	32	0	
11	0	0	0	0	0	515	514	512	31	0	
12	0	0	0	0	0	517	512	509	31	0	
13	0	0	0	0	0	513	509	510	31	0	
14	0	0	0	0	0	514	511	508	31	0	
15	0	0	0	0	2	513	509	511	32	0	
0	0	0	0	0	0	512	508	510	31	0	
1	0	0	0	0	0	515	510	513	32	0	
2	0	0	0	0	0	517	508	513	32	0	
3	0	0	0	0	0	513	508	511	32	0	
4	0	0	0	0	0	515	507	511	32	0	
5	0	0	0	0	0	511	507	512	31	0	
6	0	0	0	0	0	511	512	514	31	0	
7	0	0	0	0	2	512	511	515	31	0	
8	0	0	0	0	0	511	509	510	32	0	
9	0	0	0	0	0	512	511	509	31	0	
10	0	0	0	0	0	516	513	506	31	0	
11	0	0	0	0	0	517	512	503	31	0	
12	0	0	0	0	0	518	511	505	32	0	
13	0	0	0	0	0	515	511	510	32	0	
14	0	0	0	0	0	514	511	509	31	0	
15	0	0	0	0	2	516	510	509	31	0	
0	0	0	0	0	0	512	510	513	31	0	
1	0	0	0	0	0	513	510	512	31	0	
2	0	0	0	0	0	514	508	512	31	0	
3	0	0	0	0	0	514	508	512	32	0	
4	0	0	0	0	0	513	505	511	31	0	
5	0	0	0	0	0	514	509	513	31	0	
6	0	0	0	0	0	513	510	513	32	0	
7	0	0	0	0	2	511	508	510	31	0	
8	0	0	0	0	0	513	508	510	31	0	
9	0	0	0	0	0	513	509	513	31	0	
10	0	0	0	0	0	515	511	511	32	0	
11	0	0	0	0	0	514	511	511	32	0	
12	0	0	0	0	0	513	511	513	32	0	
13	0	0	0	0	0	515	510	513	32	0	
14	0	0	0	0	0	513	509	514	32	0	
15	0	0	0	0	2	515	509	514	32	0	
0	0	0	0	0	0	512	508	513	32	0	
1	0	0	0	0	0	512	511	511	32	0	
2	0	0	0	0	0	515	511	513	32	0	
3	0	0	0	0	0	514	510	511	31	0	
4	0	0	0	0	0	515	508	508	31	0	
5	0	0	0	0	0	514	508	510	32	0	
6	0	0	0	0	0	515	510	508	31	0	
7	0	0	0	0	2	514	508	511	31	0	
8	0	0	0	0	0	514	508	511	32	0	
9	0	0	0	0	0	515	510	511	31	0	
10	0	0	0	0	0	515	511	509	31	0	
11	0	0	0	0	0	512	510	510	31	0	
12	0	0	0	0	0	513	508	510	31	0	
13	0	0	0	0	0	512	509	509	31	0	
14	0	0	0	0	0	512	510	511	32	0	
15	0	0	0	0	1	511	509	514	32	0	
0	0	0	0	0	0	516	511	514	31	0	
1	0	0	0	0	0	512	512	518	32	0	
2	0	0	0	0	0	510	511	515	31	0	
3	0	0	0	0	0	513	510	515	32	0	
4	0	0	0	0	0	511	510	518	32	0	
5	0	0	0	0	0	511	508	515	32	0	
6	0	0	0	0	0	510	506	513	32	0	
7	0	0	0	0	1	515	510	508	31	0	
8	0	0	0	0	0	513	509	505	31	0	
9	0	0	0	0	0	519	511	500	31	0	
10	0	0	0	0	0	516	514	504	31	0	
11	0	0	0	0	0	517	513	510	32	0	
12	0	0	0	0	0	516	512	515	32	0	
13	0	0	0	0	0	514	510	515	32	0	
14	0	0	0	0	0	515	508	514	32	0	
15	0	0	0	0	1	514	510	515	32	0	
0	0	0	0	0	0	512	507	512	32	0	
1	0	0	0	0	0	515	509	507	32	0	
2	0	0	0	0	0	514	508	500	32	0	
3	0	0	0	0	0	517	510	501	32	0	
4	0	0	0	0	0	516	511	505	31	0	
5	0	0	0	0	0	516	508	508	31	0	
6	0	0	0	0	0	514	512	510	31	0	
7	0	0	0	0	2	512	511	511	31	0	
8	0	0	0	0	0	515	511	513	31	0	
9	0	0	0	0	0	515	509	515	32	0	
10	0	0	0	0	0	515	510	515	32	0	
11	0	0	0	0	0	514	510	513	32	0	
12	0	0	0	0	0	513	507	512	32	0	
13	0	0	0	0	0	514	504	512	32	0	
14	0	0	0	0	0	514	507	511	32	0	
15	0	0	0	0	2	513	508	510	32	0	
0	0	0	0	0	0	512	509	511	31	0	
1	0	0	0	0	0	511	508	510	31	0	
2	0	0	0	0	0	510	506	510	31	0	
3	0	0	0	0	0	513	509	508	31	0	
4	0	0	0	0	0	513	508	508	31	0	
5	0	0	0	0	0	509	509	510	31	0	
6	0	0	0	0	0	512	510	511	32	0	
7	0	0	0	0	2	511	510	514	31	0	
8	0	0	0	0	0	513	509	510	31	0	
9	0	0	0	0	0	512	510	514	31	0	
10	0	0	0	0	0	516	511	513	31	0	
11	0	0	0	0	0	515	513	513	32	0	
12	0	0	0	0	0	514	511	515	32	0	
13	0	0	0	0	0	513	513	515	32	0	
14	0	0	0	0	0	516	512	514	32	0	
15	0	0	0	0	2	516	510	513	32	0	
0	0	0	0	0	0	516	511	517	32	0	
1	0	0	0	0	0	514	510	514	32	0	
2	0	0	0	0	0	515	510	512	32	0	
3	0	0	0	0	0	516	507	508	32	0	
4	0	0	0	0	0	515	511	510	32	0	
5	0	0	0	0	0	514	510	511	32	0	
6	0	0	0	0	0	514	509	511	32	0	
7	0	0	0	0	2	514	511	512	32	0	
8	0	0	0	0	0	515	511	510	31	0	
9	0	0	0	0	0	515	510	511	31	0	
10	0	0	0	0	0	514	510	513	32	0	
11	0	0	0	0	0	515	509	513	31	0	
12	0	0	0	0	0	514	508	512	32	0	
13	0	0	0	0	0	515	509	511	31	0	
14	0	0	0	0	0	514	509	512	32	0	
15	0	0	0	0	2	514	508	511	32	0	
0	0	0	0	0	0	515	505	510	32	0	
1	0	0	0	0	0	514	508	509	31	0	
2	0	0	0	0	0	512	510	511	31	0	
3	0	0	0	0	0	514	510	510	31	0	
4	0	0	0	0	0	513	511	511	31	0	
5	0	0	0	0	0	513	511	509	31	0	
6	0	0	0	0	0	512	509	509	31	0	
7	0	0	0	0	2	513	511	512	32	0	
8	0	0	0	0	0	512	508	510	32	0	
9	0	0	0	0	0	515	507	512	31	0	
10	0	0	0	0	0	515	506	513	31	0	
11	0	0	0	0	0	515	508	512	31	0	
12	0	0	0	0	0	516	509	511	31	0	
13	0	0	0	0	0	516	510	511	32	0	
14	0	0	0	0	0	515	511	508	31	0	
15	0	0	0	0	2	514	511	509	32	0	
0	0	0	0	0	0	515	511	511	32	0	
1	0	0	0	0	0	512	512	510	32	0	
2	0	0	0	0	0	514	514	508	32	0	
3	0	0	0	0	0	511	511	512	32	0	
4	0	0	0	0	0	513	510	513	32	0	
5	0	0	0	0	0	513	511	512	32	0	
6	0	0	0	0	0	511	507	513	32	0	
7	0	0	0	0	2	512	508	512	32	0	
8	0	0	0	0	0	513	508	511	31	0	
9	0	0	0	0	0	514	509	511	31	0	
10	0	0	0	0	0	512	509	512	31	0	
11	0	0	0	0	0	515	509	509	31	0	
12	0	0	0	0	0	515	510	511	31	0	
13	0	0	0	0	0	514	509	511	32	0	
14	0	0	0	0	0	514	508	509	31	0	
15	0	0	0	0	2	518	507	510	31	0	
0	0	0	0	0	0	514	510	508	32	0	
1	0	0	0	0	0	512	509	509	31	0	
2	0	0	0	0	0	513	510	511	32	0	
3	0	0	0	0	0	515	510	513	32	0	
4	0	0	0	0	0	514	510	516	32	0	
5	0	0	0	0	0	512	510	518	32	0	
6	0	0	0	0	0	514	509	517	32	0	
7	0	0	0	0	2	514	508	516	32	0	
8	0	0	0	0	0	513	511	511	32	0	
9	0	0	0	0	0	514	510	507	31	0	
10	0	0	0	0	0	513	510	504	31	0	
11	0	0	0	0	0	512	510	502	31	0	
12	0	0	0	0	0	514	508	504	31	0	
13	0	0	0	0	0	514	511	505	31	0	
14	0	0	0	0	0	513	509	511	31	0	
15	0	0	0	0	1	514	509	514	31	0	
0	0	0	0	0	0	512	511	514	32	0	
1	0	0	0	0	0	513	509	513	32	0	
2	0	0	0	0	0	514	508	512	32	0	
3	0	0	0	0	0	513	510	513	32	0	
4	0	0	0	0	0	515	510	511	32	0	
5	0	0	0	0	0	515	509	513	32	0	
6	0	0	0	0	0	513	511	511	32	0	
7	0	0	0	0	1	515	510	508	32	0	
8	0	0	0	0	0	516	511	512	32	0	
9	0	0	0	0	0	514	512	511	32	0	
10	0	0	0	0	0	513	510	512	31	0	
11	0	0	0	0	0	515	508	510	32	0	
12	0	0	0	0	0	517	508	511	31	0	
13	0	0	0	0	0	514	508	512	31	0	
14	0	0	0	0	0	515	508	512	32	0	
15	0	0	0	0	2	514	509	512	32	0	
0	0	0	0	0	0	516	508	512	32	0	
1	0	0	0	0	0	514	506	513	32	0	
2	0	0	0	0	0	514	506	511	32	0	
3	0	0	0	0	0	512	504	510	32	0	
4	0	0	0	0	0	513	508	511	32	0	
5	0	0	0	0	0	514	511	514	32	0	
6	0	0	0	0	0	513	511	511	31	0	
7	0	0	0	0	2	511	510	510	31	0	
8	0	0	0	0	0	511	511	510	31	0	
9	0	0	0	0	0	513	510	507	31	0	
10	0	0	0	0	0	512	512	508	31	0	
11	0	0	0	0	0	515	512	509	31	0	
12	0	0	0	0	0	514	511	510	31	0	
13	0	0	0	0	0	513	509	509	31	0	
14	0	0	0	0	0	516	512	512	32	0	
15	0	0	0	0	2	514	512	511	32	0	
0	0	0	0	0	0	514	510	511	32	0	
1	0	0	0	0	0	515	510	511	32	0	
2	0	0	0	0	0	513	509	510	32	0	
3	0	0	0	0	0	513	508	513	32	0	
4	0	0	0	0	0	513	510	513	32	0	
5	0	0	0	0	0	514	508	513	32	0	
6	0	0	0	0	0	513	508	515	32	0	
7	0	0	0	0	2	512	508	515	32	0	
8	0	0	0	0	0	512	507	515	32	0	
9	0	0	0	0	0	512	510	513	32	0	
10	0	0	0	0	0	513	508	510	32	0	
11	0	0	0	0	0	512	508	508	31	0	
12	0	0	0	0	0	516	506	507	31	0	
13	0	0	0	0	0	516	509	509	31	0	
14	0	0	0	0	0	514	511	511	32	0	
15	0	0	0	0	2	515	511	512	31	0	
0	0	0	0	0	0	516	511	515	31	0	
1	0	0	0	0	0	513	510	514	32	0	
2	0	0	0	0	0	513	509	510	32	0	
3	0	0	0	0	0	515	510	507	31	0	
4	0	0	0	0	0	515	513	508	32	0	
5	0	0	0	0	0	516	513	508	31	0	
6	0	0	0	0	0	515	512	510	31	0	
7	0	0	0	0	2	513	510	509	31	0	
8	0	0	0	0	0	515	508	510	32	0	
9	0	0	0	0	0	514	509	510	32	0	
10	0	0	0	0	0	513	507	511	32	0	
11	0	0	0	0	0	512	507	512	31	0	
12	0	0	0	0	0	512	509	512	32	0	
13	0	0	0	0	0	514	508	513	32	0	
14	0	0	0	0	0	514	508	513	32	0	
15	0	0	0	0	2	515	508	512	32	0	
0	0	0	0	0	0	513	509	513	32	0	
1	0	0	0	0	0	513	508	515	32	0	
2	0	0	0	0	0	512	509	515	32	0	
3	0	0	0	0	0	513	510	516	32	0	
4	0	0	0	0	0	514	510	515	32	0	
5	0	0	0	0	0	515	511	512	31	0	
6	0	0	0	0	0	515	510	506	31	0	
7	0	0	0	0	2	516	514	505	31	0	
8	0	0	0	0	0	516	513	507	31	0	
9	0	0	0	0	0	515	511	507	32	0	
10	0	0	0	0	0	516	510	508	32	0	
11	0	0	0	0	0	514	509	508	32	0	
12	0	0	0	0	0	515	510	511	32	0	
13	0	0	0	0	0	515	510	512	32	0	
14	0	0	0	0	0	516	511	513	31	0	
15	0	0	0	0	2	515	512	512	31	0	
0	0	0	0	0	0	513	512	515	31	0	
1	0	0	0	0	0	513	512	514	31	0	
2	0	0	0	0	0	511	511	512	31	0	
3	0	0	0	0	0	513	510	508	32	0	
4	0	0	0	0	0	513	506	509	32	0	
5	0	0	0	0	0	511	504	507	32	0	
6	0	0	0	0	0	511	506	509	32	0	
7	0	0	0	0	2	512	507	509	32	0	
8	0	0	0	0	0	511	510	508	32	0	
9	0	0	0	0	0	511	509	509	32	0	
10	0	0	0	0	0	515	510	511	32	0	
11	0	0	0	0	0	513	508	514	32	0	
12	0	0	0	0	0	516	510	513	31	0	
13	0	0	0	0	0	516	511	512	31	0	
14	0	0	0	0	0	517	511	510	32	0	
15	0	0	0	0	2	515	508	511	31	0	
0	0	0	0	0	0	513	509	511	31	0	
1	0	0	0	0	0	518	509	510	31	0	
2	0	0	0	0	0	515	507	509	32	0	
3	0	0	0	0	0	515	510	511	32	0	
4	0	0	0	0	0	513	508	511	32	0	
5	0	0	0	0	0	512	509	508	32	0	
6	0	0	0	0	0	512	512	512	31	0	
7	0	0	0	0	1	514	509	512	32	0	
8	0	0	0	0	0	515	508	515	32	0	
9	0	0	0	0	0	515	510	514	31	0	
10	0	0	0	0	0	513	511	515	31	0	
11	0	0	0	0	0	511	512	515	32	0	
12	0	0	0	0	0	512	512	512	32	0	
13	0	0	0	0	0	511	510	511	31	0	
14	0	0	0	0	0	513	511	511	31	0	
15	0	0	0	0	1	512	509	512	31	0	
0	0	0	0	0	0	516	511	512	32	0	
1	0	0	0	0	0	515	509	511	31	0	
2	0	0	0	0	0	513	509	511	32	0	
3	0	0	0	0	0	514	507	509	31	0	
4	0	0	0	0	0	511	508	511	32	0	
5	0	0	0	0	0	514	504	512	32	0	
6	0	0	0	0	0	515	508	511	31	0	
7	0	0	0	0	1	517	511	511	31	0	
8	0	0	0	0	0	515	511	511	32	0	
9	0	0	0	0	0	515	510	511	31	0	
10	0	0	0	0	0	516	511	510	31	0	
11	0	0	0	0	0	515	511	510	31	0	
12	0	0	0	0	0	514	510	512	31	0	
13	0	0	0	0	0	511	511	513	32	0	
14	0	0	0	0	0	513	510	511	32	0	
15	0	0	0	0	2	512	510	510	32	0	
0	0	0	0	0	0	510	508	511	31	0	
1	0	0	0	0	0	514	510	512	31	0	
2	0	0	0	0	0	514	512	512	32	0	
3	0	0	0	0	0	516	513	511	32	0	
4	0	0	0	0	0	514	511	508	32	0	
5	0	0	0	0	0	517	510	507	31	0	
6	0	0	0	0	0	515	510	511	31	0	
7	0	0	0	0	2	515	509	513	31	0	
8	0	0	0	0	0	512	508	512	32	0	
9	0	0	0	0	0	515	506	508	32	0	
10	0	0	0	0	0	512	507	510	32	0	
11	0	0	0	0	0	512	512	509	32	0	
12	0	0	0	0	0	512	510	513	31	0	
13	0	0	0	0	0	511	509	514	31	0	
14	0	0	0	0	0	512	508	515	31	0	
15	0	0	0	0	2	512	510	513	31	0	
0	0	0	0	0	0	512	508	512	32	0	
1	0	0	0	0	0	515	508	509	32	0	
2	0	0	0	0	0	515	508	510	32	0	
3	0	0	0	0	0	518	509	510	32	0	
4	0	0	0	0	0	517	510	510	32	0	
5	0	0	0	0	0	519	515	509	32	0	
6	0	0	0	0	0	515	513	514	31	0	
7	0	0	0	0	2	511	513	513	32	0	
8	0	0	0	0	0	513	512	513	32	0	
9	0	0	0	0	0	512	511	512	31	0	
10	0	0	0	0	0	515	510	512	31	0	
11	0	0	0	0	0	515	511	513	31	0	
12	0	0	0	0	0	515	513	509	31	0	
13	0	0	0	0	0	515	510	511	31	0	
14	0	0	0	0	0	514	510	510	32	0	
15	0	0	0	0	2	513	511	508	31	0	
0	0	0	0	0	0	514	509	507	32	0	
1	0	0	0	0	0	511	509	507	32	0	
2	0	0	0	0	0	512	509	504	32	0	
3	0	0	0	0	0	513	506	504	32	0	
4	0	0	0	0	0	512	506	506	32	0	
5	0	0	0	0	0	510	509	508	31	0	
6	0	0	0	0	0	511	510	513	31	0	
7	0	0	0	0	2	514	508	513	32	0	
8	0	0	0	0	0	516	508	515	32	0	
9	0	0	0	0	0	511	507	513	32	0	
10	0	0	0	0	0	514	509	515	32	0	
11	0	0	0	0	0	514	507	513	32	0	
12	0	0	0	0	0	513	508	515	32	0	
13	0	0	0	0	0	514	508	513	32	0	
14	0	0	0	0	0	515	509	521	32	0	
15	0	0	0	0	2	515	509	521	32	0	
0	0	0	0	0	0	513	512	516	32	0	
1	0	0	0	0	0	513	510	511	31	0	
2	0	0	0	0	0	514	511	504	31	0	
3	0	0	0	0	0	516	509	502	31	0	
4	0	0	0	0	0	517	510	502	31	0	
5	0	0	0	0	0	516	510	503	31	0	
6	0	0	0	0	0	516	511	504	31	0	
7	0	0	0	0	2	514	509	508	31	0	
8	0	0	0	0	0	513	511	513	31	0	
9	0	0	0	0	0	512	508	514	32	0	
10	0	0	0	0	0	510	508	512	32	0	
11	0	0	0	0	0	511	506	513	32	0	
12	0	0	0	0	0	512	509	513	32	0	
13	0	0	0	0	0	514	509	512	32	0	
14	0	0	0	0	0	514	511	512	32	0	
15	0	0	0	0	2	513	512	513	31	0	
0	0	0	0	0	0	515	510	515	31	0	
1	0	0	0	0	0	515	510	521	31	0	
2	0	0	0	0	0	515	509	517	31	0	
3	0	0	0	0	0	514	507	516	31	0	
4	0	0	0	0	0	517	507	512	32	0	
5	0	0	0	0	0	515	509	504	32	0	
6	0	0	0	0	0	516	511	503	32	0	
7	0	0	0	0	2	515	511	503	31	0	
8	0	0	0	0	0	515	512	504	31	0	
9	0	0	0	0	0	512	511	507	31	0	
10	0	0	0	0	0	512	510	508	31	0	
11	0	0	0	0	0	514	511	513	32	0	
12	0	0	0	0	0	511	512	517	32	0	
13	0	0	0	0	0	513	511	516	32	0	
14	0	0	0	0	0	510	508	513	32	0	
15	0	0	0	0	2	512	508	511	32	0	
0	0	0	0	0	0	515	508	511	31	0	
1	0	0	0	0	0	513	509	511	32	0	
2	0	0	0	0	0	515	509	514	32	0	
3	0	0	0	0	0	515	510	512	31	0	
4	0	0	0	0	0	513	510	512	31	0	
5	0	0	0	0	0	515	507	512	31	0	
6	0	0	0	0	0	515	505	513	32	0	
7	0	0	0	0	0	515	505	510	32	0	
8	0	0	0	0	0	515	511	507	31	0	
9	0	0	0	0	0	514	510	507	31	0	
10	0	0	0	0	0	514	512	507	32	0	
11	0	0	0	0	0	514	511	510	32	0	
12	0	0	0	0	0	515	511	509	31	0	
13	0	0	0	0	0	514	509	508	31	0	
14	0	0	0	0	0	514	510	511	31	0	
15	0	0	0	0	1	512	511	512	32	0	
0	0	0	0	0	0	512	509	511	32	0	
1	0	0	0	0	0	513	510	514	32	0	
2	0	0	0	0	0	512	510	518	32	0	
3	0	0	0	0	0	511	509	516	32	0	
4	0	0	0	0	0	511	509	518	32	0	
5	0	0	0	0	0	512	508	512	32	0	
6	0	0	0	0	0	512	508	511	32	0	
7	0	0	0	0	1	513	508	508	32	0	
8	0	0	0	0	0	511	511	508	31	0	
9	0	0	0	0	0	513	510	510	31	0	
10	0	0	0	0	0	516	511	510	31	0	
11	0	0	0	0	0	514	510	513	31	0	
12	0	0	0	0	0	516	508	511	31	0	
13	0	0	0	0	0	515	511	507	31	0	
14	0	0	0	0	0	515	509	509	31	0	
15	0	0	0	0	2	515	508	509	31	0	
0	0	0	0	0	0	513	510	511	32	0	
1	0	0	0	0	0	514	510	509	32	0	
2	0	0	0	0	0	515	512	509	31	0	
3	0	0	0	0	0	516	510	511	31	0	
4	0	0	0	0	0	515	511	513	31	0	
5	0	0	0	0	0	516	512	514	32	0	
6	0	0	0	0	0	515	514	515	32	0	
7	0	0	0	0	2	513	510	513	32	0	
8	0	0	0	0	0	512	508	510	31	0	
9	0	0	0	0	0	513	504	512	32	0	
10	0	0	0	0	0	514	506	513	31	0	
11	0	0	0	0	0	515	505	513	31	0	
12	0	0	0	0	0	512	505	513	32	0	
13	0	0	0	0	0	513	508	515	31	0	
14	0	0	0	0	0	512	506	513	32	0	
15	0	0	0	0	2	512	508	513	32	0	
0	0	0	0	0	0	513	510	511	32	0	
1	0	0	0	0	0	512	511	508	32	0	
2	0	0	0	0	0	512	511	508	32	0	
3	0	0	0	0	0	512	510	507	32	0	
4	0	0	0	0	0	515	511	507	31	0	
5	0	0	0	0	0	516	510	509	31	0	
6	0	0	0	0	0	519	514	507	31	0	
7	0	0	0	0	2	519	514	509	32	0	
8	0	0	0	0	0	515	515	512	31	0	
9	0	0	0	0	0	515	512	512	31	0	
10	0	0	0	0	0	514	512	513	31	0	
11	0	0	0	0	0	514	511	512	32	0	
12	0	0	0	0	0	512	512	507	31	0	
13	0	0	0	0	0	511	512	509	31	0	
14	0	0	0	0	0	511	512	511	31	0	
15	0	0	0	0	2	513	511	508	31	0	
0	0	0	0	0	0	514	509	510	32	0	
1	0	0	0	0	0	515	506	511	32	0	
2	0	0	0	0	0	513	504	512	32	0	
3	0	0	0	0	0	515	507	512	32	0	
4	0	0	0	0	0	516	508	512	32	0	
5	0	0	0	0	0	514	506	510	31	0	
6	0	0	0	0	0	513	508	512	32	0	
7	0	0	0	0	2	512	506	513	31	0	
8	0	0	0	0	0	514	508	515	31	0	
9	0	0	0	0	0	513	507	515	32	0	
10	0	0	0	0	0	512	511	513	32	0	
11	0	0	0	0	0	511	511	512	32	0	
12	0	0	0	0	0	514	509	511	32	0	
13	0	0	0	0	0	515	511	509	31	0	
14	0	0	0	0	0	515	510	512	32	0	
15	0	0	0	0	2	515	508	511	32	0	
0	0	0	0	0	0	515	511	508	31	0	
1	0	0	0	0	0	515	512	504	31	0	
2	0	0	0	0	0	516	513	506	31	0	
3	0	0	0	0	0	515	514	507	31	0	
4	0	0	0	0	0	516	512	516	31	0	
5	0	0	0	0	0	512	510	518	32	0	
6	0	0	0	0	0	516	509	513	32	0	
7	0	0	0	0	2	516	510	510	32	0	
8	0	0	0	0	0	516	511	506	31	0	
9	0	0	0	0	0	512	509	507	31	0	
10	0	0	0	0	0	514	507	507	31	0	
11	0	0	0	0	0	513	506	508	32	0	
12	0	0	0	0	0	514	507	511	32	0	
13	0	0	0	0	0	510	509	521	32	0	
14	0	0	0	0	0	513	510	525	32	0	
15	0	0	0	0	2	510	508	523	32	0	
0	0	0	0	0	0	512	507	515	32	0	
1	0	0	0	0	0	514	511	505	32	0	
2	0	0	0	0	0	514	509	499	32	0	
3	0	0	0	0	0	516	510	494	31	0	
4	0	0	0	0	0	515	510	499	31	0	
5	0	0	0	0	0	511	509	503	32	0	
6	0	0	0	0	0	514	508	507	32	0	
7	0	0	0	0	2	514	511	513	32	0	
8	0	0	0	0	0	514	511	515	31	0	
9	0	0	0	0	0	516	511	518	32	0	
10	0	0	0	0	0	515	510	518	32	0	
11	0	0	0	0	0	514	511	514	31	0	
12	0	0	0	0	0	515	511	512	31	0	
13	0	0	0	0	0	516	514	511	31	0	
14	0	0	0	0	0	515	512	510	31	0	
15	0	0	0	0	2	512	513	508	31	0	
0	0	0	0	0	0	514	510	510	32	0	
1	0	0	0	0	0	515	507	512	32	0	
2	0	0	0	0	0	513	508	515	32	0	
3	0	0	0	0	0	514	510	514	32	0	
4	0	0	0	0	0	512	509	513	31	0	
5	0	0	0	0	0	512	512	511	31	0	
6	0	0	0	0	0	511	508	513	32	0	
7	0	0	0	0	1	511	506	514	32	0	
8	0	0	0	0	0	514	506	511	32	0	
9	0	0	0	0	0	514	507	510	32	0	
10	0	0	0	0	0	517	507	510	31	0	
11	0	0	0	0	0	514	508	511	32	0	
12	0	0	0	0	0	513	509	510	31	0	
13	0	0	0	0	0	511	512	512	31	0	
14	0	0	0	0	0	511	509	514	32	0	
15	0	0	0	0	1	511	508	512	32	0	
0	0	0	0	0	0	511	510	508	32	0	
1	0	0	0	0	0	514	511	508	32	0	
2	0	0	0	0	0	514	509	511	32	0	
3	0	0	0	0	0	514	510	510	32	0	
4	0	0	0	0	0	514	510	511	32	0	
5	0	0	0	0	0	514	508	512	32	0	
6	0	0	0	0	0	516	512	511	32	0	
7	0	0	0	0	2	519	511	510	31	0	
8	0	0	0	0	0	519	511	511	31	0	
9	0	0	0	0	0	519	510	505	31	0	
10	0	0	0	0	0	515	508	505	31	0	
11	0	0	0	0	0	512	504	513	31	0	
12	0	0	0	0	0	512	506	510	31	0	
13	0	0	0	0	0	515	509	512	31	0	
14	0	0	0	0	0	515	513	511	31	0	
15	0	0	0	0	2	514	514	510	32	0	
0	0	0	0	0	0	513	514	511	32	0	
1	0	0	0	0	0	512	512	513	32	0	
2	0	0	0	0	0	509	510	515	32	0	
3	0	0	0	0	0	512	512	512	31	0	
4	0	0	0	0	0	511	511	510	31	0	
5	0	0	0	0	0	511	510	509	32	0	
6	0	0	0	0	0	515	509	511	32	0	
7	0	0	0	0	2	514	507	511	32	0	
8	0	0	0	0	0	514	507	512	32	0	
9	0	0	0	0	0	515	504	514	32	0	
10	0	0	0	0	0	516	507	516	32	0	
11	0	0	0	0	0	514	507	516	32	0	
12	0	0	0	0	0	512	505	510	31	0	
13	0	0	0	0	0	512	509	508	31	0	
14	0	0	0	0	0	510	509	513	31	0	
15	0	0	0	0	2	511	508	514	32	0	
0	0	0	0	0	0	511	508	510	32	0	
1	0	0	0	0	0	516	511	508	32	0	
2	0	0	0	0	0	518	512	505	32	0	
3	0	0	0	0	0	518	512	508	32	0	
4	0	0	0	0	0	516	515	509	31	0	
5	0	0	0	0	0	518	515	508	31	0	
6	0	0	0	0	0	515	513	508	31	0	
7	0	0	0	0	2	515	511	505	31	0	
8	0	0	0	0	0	515	508	510	31	0	
9	0	0	0	0	0	513	508	513	31	0	
10	0	0	0	0	0	514	508	513	32	0	
11	0	0	0	0	0	511	510	515	32	0	
12	0	0	0	0	0	511	508	512	32	0	
13	0	0	0	0	0	512	511	514	32	0	
14	0	0	0	0	0	513	513	515	32	0	
15	0	0	0	0	2	512	512	513	31	0	
0	0	0	0	0	0	510	510	514	32	0	
1	0	0	0	0	0	511	507	511	32	0	
2	0	0	0	0	0	513	504	510	31	0	
3	0	0	0	0	0	511	504	511	32	0	
4	0	0	0	0	0	512	509	510	31	0	
5	0	0	0	0	0	512	513	510	31	0	
6	0	0	0	0	0	515	519	512	32	0	
7	0	0	0	0	2	514	515	511	32	0	
8	0	0	0	0	0	512	511	513	32	0	
9	0	0	0	0	0	513	509	515	32	0	
10	0	0	0	0	0	513	504	513	32	0	
11	0	0	0	0	0	518	501	512	32	0	
12	0	0	0	0	0	519	506	507	32	0	
13	0	0	0	0	0	519	508	507	31	0	
14	0	0	0	0	0	515	508	511	31	0	
15	0	0	0	0	2	515	510	511	31	0	
0	0	0	0	0	0	519	513	510	31	0	
1	0	0	0	0	0	518	514	510	31	0	
2	0	0	0	0	0	517	515	508	31	0	
3	0	0	0	0	0	515	514	506	31	0	
4	0	0	0	0	0	513	510	507	31	0	
5	0	0	0	0	0	510	505	511	32	0	
6	0	0	0	0	0	509	502	515	32	0	
7	0	0	0	0	2	509	503	514	32	0	
8	0	0	0	0	0	512	511	512	31	0	
9	0	0	0	0	0	517	521	508	31	0	
10	0	0	0	0	0	519	521	513	32	0	
11	0	0	0	0	0	518	514	515	32	0	
12	0	0	0	0	0	515	508	515	32	0	
13	0	0	0	0	0	517	508	514	32	0	
14	0	0	0	0	0	515	506	509	31	0	
15	0	0	0	0	2	514	508	504	31	0	
0	0	0	0	0	0	509	504	509	32	0	
1	0	0	0	0	0	510	504	509	31	0	
2	0	0	0	0	0	511	501	511	32	0	
3	0	0	0	0	0	511	503	513	32	0	
4	0	0	0	0	0	511	507	511	31	0	
5	0	0	0	0	0	511	507	510	31	0	
6	0	0	0	0	0	513	505	513	32	0	
7	0	0	0	0	2	514	508	513	32	0	
8	0	0	0	0	0	513	511	515	32	0	
9	0	0	0	0	0	512	508	513	31	0	
10	0	0	0	0	0	513	511	512	31	0	
11	0	0	0	0	0	515	512	512	31	0	
12	0	0	0	0	0	515	513	513	31	0	
13	0	0	0	0	0	514	513	509	31	0	
14	0	0	0	0	0	515	512	504	31	0	
15	0	0	0	0	1	518	514	503	31	0	
0	0	0	0	0	0	515	513	512	32	0	
1	0	0	0	0	0	513	514	513	32	0	
2	0	0	0	0	0	515	515	514	32	0	
3	0	0	0	0	0	514	512	516	32	0	
4	0	0	0	0	0	512	510	512	32	0	
5	0	0	0	0	0	515	507	510	31	0	
6	0	0	0	0	0	513	508	512	31	0	
7	0	0	0	0	1	514	509	510	31	0	
8	0	0	0	0	0	516	508	509	32	0	
9	0	0	0	0	0	512	510	510	32	0	
10	0	0	0	0	0	512	510	512	32	0	
11	0	0	0	0	0	515	509	517	32	0	
12	0	0	0	0	0	517	508	515	31	0	
13	0	0	0	0	0	519	510	509	31	0	
14	0	0	0	0	0	518	510	505	31	0	
15	0	0	0	0	1	515	507	505	32	0	
0	0	0	0	0	0	514	509	508	31	0	
1	0	0	0	0	0	515	507	511	31	0	
2	0	0	0	0	0	511	509	516	31	0	
3	0	0	0	0	0	510	507	516	32	0	
4	0	0	0	0	0	514	509	518	32	0	
5	0	0	0	0	0	515	512	514	31	0	
6	0	0	0	0	0	516	511	515	31	0	
7	0	0	0	0	2	517	511	510	31	0	
8	0	0	0	0	0	514	513	504	31	0	
9	0	0	0	0	0	515	515	506	32	0	
10	0	0	0	0	0	514	512	516	32	0	
11	0	0	0	0	0	512	508	518	32	0	
12	0	0	0	0	0	516	509	505	31	0	
13	0	0	0	0	0	513	509	504	31	0	
14	0	0	0	0	0	513	507	500	32	0	
15	0	0	0	0	2	511	502	506	32	0	
0	0	0	0	0	0	509	504	504	32	0	
1	0	0	0	0	0	512	507	510	32	0	
2	0	0	0	0	0	513	511	521	31	0	
3	0	0	0	0	0	515	517	524	31	0	
4	0	0	0	0	0	515	515	526	32	0	
5	0	0	0	0	0	516	511	516	31	0	
6	0	0	0	0	0	521	511	506	31	0	
7	0	0	0	0	2	513	508	512	32	0	
8	0	0	0	0	0	511	508	500	32	0	
9	0	0	0	0	0	509	504	502	32	0	
10	0	0	0	0	0	510	507	504	32	0	
11	0	0	0	0	0	513	508	506	32	0	
12	0	0	0	0	0	512	510	513	32	0	
13	0	0	0	0	0	513	511	512	31	0	
14	0	0	0	0	0	516	510	504	31	0	
15	0	0	0	0	2	514	508	509	31	0	
0	0	0	0	0	0	514	512	515	31	0	
1	0	0	0	0	0	515	514	515	32	0	
2	0	0	0	0	0	516	513	517	32	0	
3	0	0	0	0	0	513	508	519	32	0	
4	0	0	0	0	0	514	507	508	32	0	
5	0	0	0	0	0	513	508	508	31	0	
6	0	0	0	0	0	512	510	512	31	0	
7	0	0	0	0	2	512	509	517	31	0	
8	0	0	0	0	0	514	513	516	30	0	
9	0	0	0	0	0	520	516	510	31	0	
10	0	0	0	0	0	517	514	514	31	0	
11	0	0	0	0	0	515	511	509	32	0	
12	0	0	0	0	0	523	508	507	32	0	
13	0	0	0	0	0	521	510	506	32	0	
14	0	0	0	0	0	514	509	517	32	0	
15	0	0	0	0	2	509	510	516	32	0	
0	0	0	0	0	0	519	513	495	31	0	
1	0	0	0	0	0	517	517	500	31	0	
2	0	0	0	0	0	510	512	504	31	0	
3	0	0	0	0	0	509	508	514	32	0	
4	0	0	0	0	0	508	505	507	32	0	
5	0	0	0	0	0	508	507	500	32	0	
6	0	0	0	0	0	510	504	512	31	0	
7	0	0	0	0	2	507	506	519	31	0	
8	0	0	0	0	0	508	505	517	31	0	
9	0	0	0	0	0	511	507	515	32	0	
10	0	0	0	0	0	515	507	513	32	0	
11	0	0	0	0	0	516	512	521	32	0	
12	0	0	0	0	0	516	512	527	32	0	
13	0	0	0	0	0	519	509	521	31	0	
14	0	0	0	0	0	510	506	515	32	0	
15	0	0	0	0	2	517	507	494	31	0	
0	0	0	0	0	0	523	512	495	31	0	
1	0	0	0	0	0	518	510	505	31	0	
2	0	0	0	0	0	516	509	514	32	0	
3	0	0	0	0	0	513	508	521	32	0	
4	0	0	0	0	0	512	507	517	32	0	
5	0	0	0	0	0	510	508	511	31	0	
6	0	0	0	0	0	508	510	519	32	0	
7	0	0	0	0	2	506	511	522	32	0	
8	0	0	0	0	0	506	507	526	32	0	
9	0	0	0	0	0	514	507	516	32	0	
10	0	0	0	0	0	516	507	513	31	0	
11	0	0	0	0	0	519	511	504	32	0	
12	0	0	0	0	0	524	512	494	31	0	
13	0	0	0	0	0	523	513	489	31	0	
14	0	0	0	0	0	519	513	495	31	0	
15	0	0	0	0	2	515	515	497	31	0	
0	0	0	0	0	0	512	515	508	31	0	
1	0	0	0	0	0	513	510	512	32	0	
2	0	0	0	0	0	512	507	513	32	0	
3	0	0	0	0	0	514	509	512	32	0	
4	0	0	0	0	0	509	510	515	31	0	
5	0	0	0	0	0	509	505	517	32	0	
6	0	0	0	0	0	511	508	510	31	0	
7	0	0	0	0	2	512	507	511	31	0	
8	0	0	0	0	0	512	506	519	32	0	
9	0	0	0	0	0	515	508	521	32	0	
10	0	0	0	0	0	513	509	521	32	0	
11	0	0	0	0	0	515	513	511	31	0	
12	0	0	0	0	0	518	517	505	31	0	
13	0	0	0	0	0	514	508	501	32	0	
14	0	0	0	0	0	516	504	498	32	0	
15	0	0	0	0	1	514	508	499	31	0	
0	0	0	0	0	0	512	510	507	32	0	
1	0	0	0	0	0	515	510	511	32	0	
2	0	0	0	0	0	515	513	517	31	0	
3	0	0	0	0	0	513	513	514	31	0	
4	0	0	0	0	0	516	513	509	31	0	
5	0	0	0	0	0	514	510	512	31	0	
6	0	0	0	0	0	512	512	518	31	0	
7	0	0	0	0	1	512	509	519	31	0	
8	0	0	0	0	0	507	507	521	32	0	
9	0	0	0	0	0	512	510	516	32	0	
10	0	0	0	0	0	508	508	518	32	0	
11	0	0	0	0	0	513	507	512	31	0	
12	0	0	0	0	0	515	505	514	32	0	
13	0	0	0	0	0	513	508	500	32	0	
14	0	0	0	0	0	519	511	491	31	0	
15	0	0	0	0	1	520	512	494	31	0	
0	0	0	0	0	0	518	512	501	31	0	
1	0	0	0	0	0	520	519	508	30	0	
2	0	0	0	0	0	518	514	519	32	0	
3	0	0	0	0	0	510	508	530	33	0	
4	0	0	0	0	0	507	497	527	33	0	
5	0	0	0	0	0	512	504	516	32	0	
6	0	0	0	0	0	513	508	517	32	0	
7	0	0	0	0	2	509	513	519	32	0	
8	0	0	0	0	0	511	513	505	32	0	
9	0	0	0	0	0	513	511	500	31	0	
10	0	0	0	0	0	512	511	507	31	0	
11	0	0	0	0	0	514	508	511	32	0	
12	0	0	0	0	0	514	505	513	32	0	
13	0	0	0	0	0	516	508	519	32	0	
14	0	0	0	0	0	518	510	509	31	0	
15	0	0	0	0	2	516	508	513	31	0	
0	0	0	0	0	0	514	510	513	32	0	
1	0	0	0	0	0	515	511	513	32	0	
2	0	0	0	0	0	516	511	510	31	0	
3	0	0	0	0	0	519	514	506	31	0	
4	0	0	0	0	0	516	514	508	31	0	
5	0	0	0	0	0	516	509	511	32	0	
6	0	0	0	0	0	514	505	506	33	0	
7	0	0	0	0	2	509	504	512	33	0	
8	0	0	0	0	0	511	505	504	32	0	
9	0	0	0	0	0	508	507	511	31	0	
10	0	0	0	0	0	509	511	517	31	0	
11	0	0	0	0	0	511	515	514	31	0	
12	0	0	0	0	0	511	512	512	32	0	
13	0	0	0	0	0	515	512	510	31	0	
14	0	0	0	0	0	520	514	509	31	0	
15	0	0	0	0	2	514	510	519	32	0	
0	0	0	0	0	0	512	509	511	31	0	
1	0	0	0	0	0	513	509	510	31	0	
2	0	0	0	0	0	516	505	516	32	0	
3	0	0	0	0	0	522	507	510	32	0	
4	0	0	0	0	0	518	510	508	32	0	
5	0	0	0	0	0	514	508	504	32	0	
6	0	0	0	0	0	512	510	504	31	0	
7	0	0	0	0	2	510	509	508	31	0	
8	0	0	0	0	0	511	510	517	31	0	
9	0	0	0	0	0	510	509	516	31	0	
10	0	0	0	0	0	508	509	515	31	0	
11	0	0	0	0	0	507	508	519	31	0	
12	0	0	0	0	0	509	509	514	32	0	
13	0	0	0	0	0	512	508	516	32	0	
14	0	0	0	0	0	512	510	518	32	0	
15	0	0	0	0	2	518	507	518	32	0	
0	0	0	0	0	0	520	509	507	32	0	
1	0	0	0	0	0	514	510	507	31	0	
2	0	0	0	0	0	516	514	502	31	0	
3	0	0	0	0	0	518	513	506	31	0	
4	0	0	0	0	0	517	509	506	31	0	
5	0	0	0	0	0	527	514	496	31	0	
6	0	0	0	0	0	520	513	504	31	0	
7	0	0	0	0	2	510	508	527	32	0	
8	0	0	0	0	0	506	507	525	32	0	
9	0	0	0	0	0	509	510	519	32	0	
10	0	0	0	0	0	515	512	509	32	0	
11	0	0	0	0	0	518	512	497	31	0	
12	0	0	0	0	0	515	511	496	31	0	
13	0	0	0	0	0	512	510	499	31	0	
14	0	0	0	0	0	511	514	499	31	0	
15	0	0	0	0	2	511	509	518	31	0	
0	0	0	0	0	0	510	504	529	32	0	
1	0	0	0	0	0	510	507	527	32	0	
2	0	0	0	0	0	508	508	517	32	0	
3	0	0	0	0	0	515	507	504	32	0	
4	0	0	0	0	0	515	510	509	31	0	
5	0	0	0	0	0	518	509	509	31	0	
6	0	0	0	0	0	518	511	504	31	0	
7	0	0	0	0	2	513	511	509	31	0	
8	0	0	0	0	0	513	506	518	33	0	
9	0	0	0	0	0	514	506	513	32	0	
10	0	0	0	0	0	516	507	512	32	0	
11	0	0	0	0	0	516	510	514	32	0	
12	0	0	0	0	0	513	508	519	32	0	
13	0	0	0	0	0	508	508	520	32	0	
14	0	0	0	0	0	510	511	511	31	0	
15	0	0	0	0	2	512	509	512	31	0	
0	0	0	0	0	0	512	509	511	32	0	
1	0	0	0	0	0	514	513	495	31	0	
2	0	0	0	0	0	519	513	494	31	0	
3	0	0	0	0	0	518	511	512	31	0	
4	0	0	0	0	0	516	510	518	31	0	
5	0	0	0	0	0	516	507	517	31	0	
6	0	0	0	0	0	517	510	508	31	0	
7	0	0	0	0	1	516	510	507	31	0	
8	0	0	0	0	0	512	506	521	32	0	
9	0	0	0	0	0	511	504	523	32	0	
10	0	0	0	0	0	510	507	508	32	0	
11	0	0	0	0	0	507	510	505	32	0	
12	0	0	0	0	0	510	509	502	31	0	
13	0	0	0	0	0	513	508	509	31	0	
14	0	0	0	0	0	514	508	513	32	0	
15	0	0	0	0	1	512	509	518	31	0	
0	0	0	0	0	0	510	511	514	32	0	
1	0	0	0	0	0	515	512	510	31	0	
2	0	0	0	0	0	512	515	515	31	0	
3	0	0	0	0	0	513	521	515	31	0	
4	0	0	0	0	0	517	519	504	31	0	
5	0	0	0	0	0	521	509	505	31	0	
6	0	0	0	0	0	521	508	508	32	0	
7	0	0	0	0	1	520	511	504	31	0	
8	0	0	0	0	0	514	501	515	32	0	
9	0	0	0	0	0	513	502	523	32	0	
10	0	0	0	0	0	514	513	518	31	0	
11	0	0	0	0	0	507	510	515	32	0	
12	0	0	0	0	0	508	506	512	32	0	
13	0	0	0	0	0	509	506	508	32	0	
14	0	0	0	0	0	511	508	505	31	0	
15	0	0	0	0	2	512	513	503	31	0	
0	0	0	0	0	0	511	517	506	31	0	
1	0	0	0	0	0	513	505	513	32	0	
2	0	0	0	0	0	516	504	515	32	0	
3	0	0	0	0	0	516	506	515	32	0	
4	0	0	0	0	0	519	508	515	31	0	
5	0	0	0	0	0	517	508	513	31	0	
6	0	0	0	0	0	518	519	504	31	0	
7	0	0	0	0	2	515	519	510	31	0	
8	0	0	0	0	0	515	510	515	31	0	
9	0	0	0	0	0	512	505	522	32	0	
10	0	0	0	0	0	516	505	511	32	0	
11	0	0	0	0	0	517	507	507	32	0	
12	0	0	0	0	0	515	508	512	32	0	
13	0	0	0	0	0	510	510	516	32	0	
14	0	0	0	0	0	508	509	518	32	0	
15	0	0	0	0	2	507	512	503	31	0	
0	0	0	0	0	0	513	514	494	31	0	
1	0	0	0	0	0	510	513	511	31	0	
2	0	0	0	0	0	509	508	526	32	0	
3	0	0	0	0	0	510	509	521	32	0	
4	0	0	0	0	0	516	511	509	32	0	
5	0	0	0	0	0	520	511	495	32	0	
6	0	0	0	0	0	516	513	496	31	0	
7	0	0	0	0	2	515	512	504	31	0	
8	0	0	0	0	0	519	506	510	31	0	
9	0	0	0	0	0	519	507	513	32	0	
10	0	0	0	0	0	514	506	518	32	0	
11	0	0	0	0	0	512	508	519	32	0	
12	0	0	0	0	0	510	508	529	31	0	
13	0	0	0	0	0	506	508	531	31	0	
14	0	0	0	0	0	506	508	512	31	0	
15	0	0	0	0	2	511	508	503	31	0	
0	0	0	0	0	0	515	509	502	31	0	
1	0	0	0	0	0	519	512	497	31	0	
2	0	0	0	0	0	519	509	505	32	0	
3	0	0	0	0	0	518	509	508	32	0	
4	0	0	0	0	0	515	519	512	31	0	
5	0	0	0	0	0	519	515	512	32	0	
6	0	0	0	0	0	524	503	519	33	0	
7	0	0	0	0	2	521	507	514	32	0	
8	0	0	0	0	0	516	510	507	31	0	
9	0	0	0	0	0	510	512	504	31	0	
10	0	0	0	0	0	508	513	508	31	0	
11	0	0	0	0	0	504	512	512	31	0	
12	0	0	0	0	0	505	513	513	32	0	
13	0	0	0	0	0	513	509	503	31	0	
14	0	0	0	0	0	515	507	505	31	0	
15	0	0	0	0	2	519	506	507	31	0	
0	0	0	0	0	0	518	508	509	32	0	
1	0	0	0	0	0	513	509	518	32	0	
2	0	0	0	0	0	510	511	521	32	0	
3	0	0	0	0	0	509	508	519	32	0	
4	0	0	0	0	0	509	508	512	32	0	
5	0	0	0	0	0	519	508	503	32	0	
6	0	0	0	0	0	508	512	514	32	0	
7	0	0	0	0	2	512	511	514	31	0	
8	0	0	0	0	0	513	507	527	32	0	
9	0	0	0	0	0	510	506	527	32	0	
10	0	0	0	0	0	516	511	522	32	0	
11	0	0	0	0	0	515	505	516	32	0	
12	0	0	0	0	0	516	507	506	31	0	
13	0	0	0	0	0	516	510	492	31	0	
14	0	0	0	0	0	512	508	484	31	0	
15	0	0	0	0	2	510	508	495	31	0	
0	0	0	0	0	0	511	508	500	31	0	
1	0	0	0	0	0	518	509	506	31	0	
2	0	0	0	0	0	518	506	511	31	0	
3	0	0	0	0	0	517	512	523	31	0	
4	0	0	0	0	0	512	515	524	31	0	
5	0	0	0	0	0	517	516	521	32	0	
6	0	0	0	0	0	514	505	522	32	0	
7	0	0	0	0	2	521	505	492	32	0	
8	0	0	0	0	0	526	508	481	32	0	
9	0	0	0	0	0	521	511	500	32	0	
10	0	0	0	0	0	512	509	527	32	0	
11	0	0	0	0	0	507	508	532	32	0	
12	0	0	0	0	0	504	512	532	32	0	
13	0	0	0	0	0	504	509	519	32	0	
14	0	0	0	0	0	510	509	503	31	0	
15	0	0	0	0	2	513	510	500	31	0	
0	0	0	0	0	0	509	513	495	31	0	
1	0	0	0	0	0	515	511	499	31	0	
2	0	0	0	0	0	524	513	505	31	0	
3	0	0	0	0	0	524	513	515	31	0	
4	0	0	0	0	0	520	511	520	31	0	
5	0	0	0	0	0	513	512	515	32	0	
6	0	0	0	0	0	510	510	516	32	0	
7	0	0	0	0	1	506	510	519	32	0	
8	0	0	0	0	0	511	507	514	31	0	
9	0	0	0	0	0	508	504	521	32	0	
10	0	0	0	0	0	510	501	507	32	0	
11	0	0	0	0	0	522	507	500	31	0	
12	0	0	0	0	0	511	511	512	32	0	
13	0	0	0	0	0	510	509	515	32	0	
14	0	0	0	0	0	510	510	521	32	0	
15	0	0	0	0	1	510	514	516	32	0	
0	0	0	0	0	0	510	512	512	32	0	
1	0	0	0	0	0	512	508	504	32	0	
2	0	0	0	0	0	514	511	508	32	0	
3	0	0	0	0	0	518	515	511	31	0	
4	0	0	0	0	0	518	511	512	32	0	
5	0	0	0	0	0	520	508	524	32	0	
6	0	0	0	0	0	518	511	521	31	0	
7	0	0	0	0	1	516	507	518	31	0	
8	0	0	0	0	0	515	507	509	31	0	
9	0	0	0	0	0	512	507	499	32	0	
10	0	0	0	0	0	515	508	494	32	0	
11	0	0	0	0	0	515	507	497	32	0	
12	0	0	0	0	0	516	508	496	31	0	
13	0	0	0	0	0	507	508	505	32	0	
14	0	0	0	0	0	510	509	500	31	0	
15	0	0	0	0	2	513	512	506	31	0	
0	0	0	0	0	0	513	509	521	31	0	
1	0	0	0	0	0	514	508	524	32	0	
2	0	0	0	0	0	515	508	521	32	0	
3	0	0	0	0	0	516	512	515	31	0	
4	0	0	0	0	0	519	514	507	31	0	
5	0	0	0	0	0	521	508	504	32	0	
6	0	0	0	0	0	520	508	503	32	0	
7	0	0	0	0	2	518	509	511	32	0	
8	0	0	0	0	0	516	510	514	31	0	
9	0	0	0	0	0	513	511	512	31	0	
10	0	0	0	0	0	511	511	511	31	0	
11	0	0	0	0	0	510	510	515	31	0	
12	0	0	0	0	0	510	509	517	31	0	
13	0	0	0	0	0	512	508	519	32	0	
14	0	0	0	0	0	511	508	512	32	0	
15	0	0	0	0	2	511	508	512	32	0	
0	0	0	0	0	0	509	510	519	32	0	
1	0	0	0	0	0	510	509	518	31	0	
2	0	0	0	0	0	512	510	515	31	0	
3	0	0	0	0	0	516	513	514	32	0	
4	0	0	0	0	0	517	511	508	31	0	
5	0	0	0	0	0	515	509	513	31	0	
6	0	0	0	0	0	512	508	513	31	0	
7	0	0	0	0	2	515	508	510	31	0	
8	0	0	0	0	0	514	507	509	32	0	
9	0	0	0	0	0	514	507	509	32	0	
10	0	0	0	0	0	514	509	508	32	0	
11	0	0	0	0	0	515	506	507	31	0	
12	0	0	0	0	0	517	510	505	31	0	
13	0	0	0	0	0	518	510	505	31	0	
14	0	0	0	0	0	514	512	510	31	0	
15	0	0	0	0	2	512	509	512	32	0	
0	0	0	0	0	0	511	510	512	32	0	
1	0	0	0	0	0	512	510	512	32	0	
2	0	0	0	0	0	512	509	513	32	0	
3	0	0	0	0	0	511	510	517	32	0	
4	0	0	0	0	0	509	510	513	32	0	
5	0	0	0	0	0	512	512	508	31	0	
6	0	0	0	0	0	514	510	510	32	0	
7	0	0	0	0	2	514	511	509	31	0	
8	0	0	0	0	0	514	510	508	32	0	
9	0	0	0	0	0	516	510	514	32	0	
10	0	0	0	0	0	518	510	512	31	0	
11	0	0	0	0	0	517	510	513	31	0	
12	0	0	0	0	0	518	511	513	31	0	
13	0	0	0	0	0	514	511	511	31	0	
14	0	0	0	0	0	515	511	510	32	0	
15	0	0	0	0	2	517	511	511	31	0	
0	0	0	0	0	0	514	511	511	31	0	
1	0	0	0	0	0	514	511	511	31	0	
2	0	0	0	0	0	513	510	511	32	0	
3	0	0	0	0	0	514	508	513	32	0	
4	0	0	0	0	0	513	506	512	32	0	
5	0	0	0	0	0	511	507	510	32	0	
6	0	0	0	0	0	516	510	510	32	0	
7	0	0	0	0	2	516	509	513	31	0	
8	0	0	0	0	0	515	513	515	31	0	
9	0	0	0	0	0	512	513	515	32	0	
10	0	0	0	0	0	517	511	505	31	0	
11	0	0	0	0	0	517	510	509	32	0	
12	0	0	0	0	0	514	507	511	31	0	
13	0	0	0	0	0	511	508	511	31	0	
14	0	0	0	0	0	514	506	511	31	0	
15	0	0	0	0	2	514	507	507	31	0	
0	0	0	0	0	0	513	511	510	32	0	
1	0	0	0	0	0	514	511	510	32	0	
2	0	0	0	0	0	515	510	512	32	0	
3	0	0	0	0	0	511	509	513	32	0	
4	0	0	0	0	0	512	507	512	32	0	
5	0	0	0	0	0	509	506	510	31	0	
6	0	0	0	0	0	505	507	511	32	0	
7	0	0	0	0	2	513	510	513	32	0	
8	0	0	0	0	0	512	513	514	32	0	
9	0	0	0	0	0	514	514	515	32	0	
10	0	0	0	0	0	517	514	512	32	0	
11	0	0	0	0	0	519	512	508	31	0	
12	0	0	0	0	0	520	511	505	31	0	
13	0	0	0	0	0	519	512	510	31	0	
14	0	0	0	0	0	513	510	513	31	0	
15	0	0	0	0	2	512	510	513	31	0	
0	0	0	0	0	0	513	508	511	32	0	
1	0	0	0	0	0	512	507	513	32	0	
2	0	0	0	0	0	513	506	511	32	0	
3	0	0	0	0	0	513	505	508	32	0	
4	0	0	0	0	0	515	509	512	32	0	
5	0	0	0	0	0	513	509	509	32	0	
6	0	0	0	0	0	512	510	508	31	0	
7	0	0	0	0	1	511	511	507	31	0	
8	0	0	0	0	0	512	511	507	31	0	
9	0	0	0	0	0	510	510	518	32	0	
10	0	0	0	0	0	509	507	513	32	0	
11	0	0	0	0	0	512	507	512	31	0	
12	0	0	0	0	0	515	509	508	31	0	
13	0	0	0	0	0	515	508	512	31	0	
14	0	0	0	0	0	513	509	513	32	0	
15	0	0	0	0	1	516	510	511	32	0	
0	0	0	0	0	0	516	513	512	32	0	
1	0	0	0	0	0	518	517	509	31	0	
2	0	0	0	0	0	515	514	512	31	0	
3	0	0	0	0	0	512	512	511	31	0	
4	0	0	0	0	0	512	506	513	32	0	
5	0	0	0	0	0	511	503	515	32	0	
6	0	0	0	0	0	510	507	515	32	0	
7	0	0	0	0	1	513	508	511	32	0	
8	0	0	0	0	0	518	508	509	32	0	
9	0	0	0	0	0	519	512	509	32	0	
10	0	0	0	0	0	521	514	510	31	0	
11	0	0	0	0	0	518	518	510	31	0	
12	0	0	0	0	0	514	515	507	31	0	
13	0	0	0	0	0	516	511	511	31	0	
14	0	0	0	0	0	517	510	510	32	0	
15	0	0	0	0	2	512	508	510	32	0	
0	0	0	0	0	0	508	508	513	31	0	
1	0	0	0	0	0	509	511	511	31	0	
2	0	0	0	0	0	512	511	511	31	0	
3	0	0	0	0	0	513	509	511	32	0	
4	0	0	0	0	0	520	512	510	31	0	
5	0	0	0	0	0	518	512	507	31	0	
6	0	0	0	0	0	516	508	510	32	0	
7	0	0	0	0	2	514	506	513	32	0	
8	0	0	0	0	0	511	506	514	32	0	
9	0	0	0	0	0	512	506	511	31	0	
10	0	0	0	0	0	513	504	509	31	0	
11	0	0	0	0	0	512	507	508	31	0	
12	0	0	0	0	0	508	510	510	31	0	
13	0	0	0	0	0	504	509	513	31	0	
14	0	0	0	0	0	508	508	515	31	0	
15	0	0	0	0	2	511	508	513	32	0	
0	0	0	0	0	0	515	510	515	31	0	
1	0	0	0	0	0	517	513	510	32	0	
2	0	0	0	0	0	518	510	507	32	0	
3	0	0	0	0	0	517	509	510	32	0	
4	0	0	0	0	0	516	508	512	32	0	
5	0	0	0	0	0	515	507	513	32	0	
6	0	0	0	0	0	514	509	515	32	0	
7	0	0	0	0	2	511	508	521	32	0	
8	0	0	0	0	0	513	507	518	32	0	
9	0	0	0	0	0	514	511	514	31	0	
10	0	0	0	0	0	519	509	510	32	0	
11	0	0	0	0	0	518	510	507	32	0	
12	0	0	0	0	0	518	509	500	32	0	
13	0	0	0	0	0	517	511	495	31	0	
14	0	0	0	0	0	514	513	497	31	0	
15	0	0	0	0	2	514	514	504	31	0	
0	0	0	0	0	0	515	511	510	31	0	
1	0	0	0	0	0	515	513	511	32	0	
2	0	0	0	0	0	512	513	515	31	0	
3	0	0	0	0	0	510	510	519	31	0	
4	0	0	0	0	0	512	510	516	31	0	
5	0	0	0	0	0	511	503	516	31	0	
6	0	0	0	0	0	514	506	513	32	0	
7	0	0	0	0	2	513	511	509	31	0	
8	0	0	0	0	0	509	509	509	32	0	
9	0	0	0	0	0	513	511	509	32	0	
10	0	0	0	0	0	513	510	512	32	0	
11	0	0	0	0	0	513	510	515	32	0	
12	0	0	0	0	0	510	508	513	32	0	
13	0	0	0	0	0	511	508	511	31	0	
14	0	0	0	0	0	510	511	509	31	0	
15	0	0	0	0	2	515	513	510	31	0	
0	0	0	0	0	0	518	515	510	31	0	
1	0	0	0	0	0	521	511	511	31	0	
2	0	0	0	0	0	521	509	511	31	0	
3	0	0	0	0	0	518	512	511	31	0	
4	0	0	0	0	0	515	511	509	31	0	
5	0	0	0	0	0	517	506	510	31	0	
6	0	0	0	0	0	513	505	509	31	0	
7	0	0	0	0	2	516	507	511	32	0	
8	0	0	0	0	0	511	505	512	32	0	
9	0	0	0	0	0	508	505	513	32	0	
10	0	0	0	0	0	501	505	511	32	0	
11	0	0	0	0	0	504	504	515	32	0	
12	0	0	0	0	0	508	506	513	32	0	
13	0	0	0	0	0	516	512	514	32	0	
14	0	0	0	0	0	518	513	510	31	0	
15	0	0	0	0	2	522	514	510	31	0	
0	0	0	0	0	0	524	514	506	31	0	
1	0	0	0	0	0	519	513	507	31	0	
2	0	0	0	0	0	518	508	508	31	0	
3	0	0	0	0	0	511	513	512	31	0	
4	0	0	0	0	0	509	512	510	31	0	
5	0	0	0	0	0	508	513	510	31	0	
6	0	0	0	0	0	508	511	512	31	0	
7	0	0	0	0	2	513	511	513	31	0	
8	0	0	0	0	0	513	512	511	32	0	
9	0	0	0	0	0	512	511	512	32	0	
10	0	0	0	0	0	513	513	514	32	0	
11	0	0	0	0	0	515	508	513	32	0	
12	0	0	0	0	0	519	509	512	32	0	
13	0	0	0	0	0	523	507	511	32	0	
14	0	0	0	0	0	524	507	510	32	0	
15	0	0	0	0	1	519	509	511	32	0	
0	0	0	0	0	0	515	508	511	32	0	
1	0	0	0	0	0	512	506	511	31	0	
2	0	0	0	0	0	515	507	513	31	0	
3	0	0	0	0	0	510	507	513	31	0	
4	0	0	0	0	0	511	505	512	31	0	
5	0	0	0	0	0	512	511	510	32	0	
6	0	0	0	0	0	511	509	510	32	0	
7	0	0	0	0	1	509	511	511	32	0	
8	0	0	0	0	0	510	510	510	31	0	
9	0	0	0	0	0	512	512	511	31	0	
10	0	0	0	0	0	513	512	512	32	0	
11	0	0	0	0	0	512	508	513	31	0	
12	0	0	0	0	0	512	513	509	32	0	
13	0	0	0	0	0	514	510	514	31	0	
14	0	0	0	0	0	515	508	517	32	0	
15	0	0	0	0	1	514	507	514	32	0	
0	0	0	0	0	0	516	507	504	32	0	
1	0	0	0	0	0	516	505	502	31	0	
2	0	0	0	0	0	512	506	508	31	0	
3	0	0	0	0	0	512	510	512	32	0	
4	0	0	0	0	0	515	514	515	32	0	
5	0	0	0	0	0	515	516	513	32	0	
6	0	0	0	0	0	511	516	509	32	0	
7	0	0	0	0	2	512	514	511	32	0	
8	0	0	0	0	0	515	511	509	31	0	
9	0	0	0	0	0	516	511	506	31	0	
10	0	0	0	0	0	517	507	504	31	0	
11	0	0	0	0	0	513	505	512	32	0	
12	0	0	0	0	0	512	507	516	31	0	
13	0	0	0	0	0	511	509	515	31	0	
14	0	0	0	0	0	512	509	516	32	0	
15	0	0	0	0	2	515	510	512	32	0	
0	0	0	0	0	0	516	509	510	32	0	
1	0	0	0	0	0	511	510	513	32	0	
2	0	0	0	0	0	513	507	515	31	0	
3	0	0	0	0	0	516	508	512	32	0	
4	0	0	0	0	0	515	509	511	32	0	
5	0	0	0	0	0	513	510	509	31	0	
6	0	0	0	0	0	510	510	510	31	0	
7	0	0	0	0	2	511	512	512	31	0	
8	0	0	0	0	0	514	509	511	31	0	
9	0	0	0	0	0	519	511	511	31	0	
10	0	0	0	0	0	520	512	509	31	0	
11	0	0	0	0	0	520	510	509	32	0	
12	0	0	0	0	0	516	511	512	32	0	
13	0	0	0	0	0	514	512	514	32	0	
14	0	0	0	0	0	513	511	513	31	0	
15	0	0	0	0	2	513	509	508	31	0	
0	0	0	0	0	0	515	513	505	31	0	
1	0	0	0	0	0	514	511	509	31	0	
2	0	0	0	0	0	515	509	513	32	0	
3	0	0	0	0	0	512	505	511	31	0	
4	0	0	0	0	0	508	504	515	32	0	
5	0	0	0	0	0	508	502	519	32	0	
6	0	0	0	0	0	505	502	517	32	0	
7	0	0	0	0	2	508	503	515	32	0	
8	0	0	0	0	0	508	508	508	32	0	
9	0	0	0	0	0	510	510	504	31	0	
10	0	0	0	0	0	518	512	509	32	0	
11	0	0	0	0	0	521	514	510	31	0	
12	0	0	0	0	0	524	516	508	31	0	
13	0	0	0	0	0	525	515	505	31	0	
14	0	0	0	0	0	524	514	508	31	0	
15	0	0	0	0	2	520	511	514	31	0	
0	0	0	0	0	0	517	511	512	32	0	
1	0	0	0	0	0	519	512	513	31	0	
2	0	0	0	0	0	516	511	512	32	0	
3	0	0	0	0	0	511	511	515	32	0	
4	0	0	0	0	0	508	505	510	32	0	
5	0	0	0	0	0	508	508	502	32	0	
6	0	0	0	0	0	512	510	505	32	0	
7	0	0	0	0	2	515	513	509	31	0	
8	0	0	0	0	0	515	515	513	31	0	
9	0	0	0	0	0	512	514	513	31	0	
10	0	0	0	0	0	508	503	517	32	0	
11	0	0	0	0	0	505	504	517	32	0	
12	0	0	0	0	0	505	503	519	32	0	
13	0	0	0	0	0	508	508	515	32	0	
14	0	0	0	0	0	512	510	513	32	0	
15	0	0	0	0	2	517	512	506	31	0	
0	0	0	0	0	0	518	510	504	31	0	
1	0	0	0	0	0	511	507	510	31	0	
2	0	0	0	0	0	511	505	509	31	0	
3	0	0	0	0	0	511	508	511	31	0	
4	0	0	0	0	0	512	510	514	32	0	
5	0	0	0	0	0	511	509	511	31	0	
6	0	0	0	0	0	517	507	512	31	0	
7	0	0	0	0	2	516	510	508	31	0	
8	0	0	0	0	0	522	510	512	32	0	
9	0	0	0	0	0	519	507	513	32	0	
10	0	0	0	0	0	523	510	508	31	0	
11	0	0	0	0	0	518	510	509	32	0	
12	0	0	0	0	0	519	509	508	31	0	
13	0	0	0	0	0	516	508	505	32	0	
14	0	0	0	0	0	513	510	509	32	0	
15	0	0	0	0	2	512	514	511	32	0	
0	0	0	0	0	0	511	516	512	31	0	
1	0	0	0	0	0	513	515	511	32	0	
2	0	0	0	0	0	512	517	511	31	0	
3	0	0	0	0	0	511	513	512	31	0	
4	0	0	0	0	0	508	512	511	31	0	
5	0	0	0	0	0	508	507	513	31	0	
6	0	0	0	0	0	511	503	513	32	0	
7	0	0	0	0	2	515	505	516	32	0	
8	0	0	0	0	0	515	501	517	32	0	
9	0	0	0	0	0	514	506	515	32	0	
10	0	0	0	0	0	515	510	514	32	0	
11	0	0	0	0	0	519	511	510	32	0	
12	0	0	0	0	0	516	515	508	31	0	
13	0	0	0	0	0	513	515	505	31	0	
14	0	0	0	0	0	515	513	506	31	0	
15	0	0	0	0	1	514	512	512	31	0	
0	0	0	0	0	0	515	508	512	31	0	
1	0	0	0	0	0	518	507	514	32	0	
2	0	0	0	0	0	519	509	515	32	0	
3	0	0	0	0	0	515	507	510	31	0	
4	0	0	0	0	0	513	508	510	31	0	
5	0	0	0	0	0	516	505	511	32	0	
6	0	0	0	0	0	515	505	507	31	0	
7	0	0	0	0	1	510	508	507	31	0	
8	0	0	0	0	0	505	512	509	31	0	
9	0	0	0	0	0	511	506	512	32	0	
10	0	0	0	0	0	512	508	510	32	0	
11	0	0	0	0	0	514	508	513	31	0	
12	0	0	0	0	0	513	508	513	31	0	
13	0	0	0	0	0	512	507	511	32	0	
14	0	0	0	0	0	515	512	509	32	0	
15	0	0	0	0	1	514	514	509	31	0	
0	0	0	0	0	0	514	511	510	31	0	
1	0	0	0	0	0	510	509	513	32	0	
2	0	0	0	0	0	511	508	512	32	0	
3	0	0	0	0	0	513	511	511	31	0	
4	0	0	0	0	0	514	513	510	31	0	
5	0	0	0	0	0	513	511	513	32	0	
6	0	0	0	0	0	515	510	513	32	0	
7	0	0	0	0	2	517	508	512	32	0	
8	0	0	0	0	0	518	508	512	32	0	
9	0	0	0	0	0	518	506	512	32	0	
10	0	0	0	0	0	516	510	512	32	0	
11	0	0	0	0	0	515	511	514	32	0	
12	0	0	0	0	0	515	514	510	32	0	
13	0	0	0	0	0	513	513	509	31	0	
14	0	0	0	0	0	518	512	510	31	0	
15	0	0	0	0	2	513	515	513	31	0	
0	0	0	0	0	0	510	510	514	32	0	
1	0	0	0	0	0	509	511	510	31	0	
2	0	0	0	0	0	510	510	508	31	0	
3	0	0	0	0	0	514	506	509	32	0	
4	0	0	0	0	0	520	505	511	32	0	
5	0	0	0	0	0	520	509	511	31	0	
6	0	0	0	0	0	516	509	510	31	0	
7	0	0	0	0	2	513	504	512	31	0	
8	0	0	0	0	0	508	505	508	31	0	
9	0	0	0	0	0	507	507	511	32	0	
10	0	0	0	0	0	509	510	514	31	0	
11	0	0	0	0	0	507	513	514	32	0	
12	0	0	0	0	0	510	515	513	32	0	
13	0	0	0	0	0	515	516	509	32	0	
14	0	0	0	0	0	515	511	509	32	0	
15	0	0	0	0	2	513	510	512	32	0	
0	0	0	0	0	0	508	507	511	32	0	
1	0	0	0	0	0	507	505	513	32	0	
2	0	0	0	0	0	512	507	512	32	0	
3	0	0	0	0	0	518	506	515	32	0	
4	0	0	0	0	0	526	506	512	32	0	
5	0	0	0	0	0	526	510	509	31	0	
6	0	0	0	0	0	523	512	505	31	0	
7	0	0	0	0	2	516	511	507	31	0	
8	0	0	0	0	0	508	511	509	31	0	
9	0	0	0	0	0	504	506	514	31	0	
10	0	0	0	0	0	507	501	515	31	0	
11	0	0	0	0	0	513	505	513	32	0	
12	0	0	0	0	0	518	509	507	31	0	
13	0	0	0	0	0	519	510	507	32	0	
14	0	0	0	0	0	516	508	510	32	0	
15	0	0	0	0	2	515	508	512	31	0	
0	0	0	0	0	0	515	508	515	31	0	
1	0	0	0	0	0	512	513	513	32	0	
2	0	0	0	0	0	513	515	511	31	0	
3	0	0	0	0	0	516	517	512	32	0	
4	0	0	0	0	0	513	510	515	32	0	
5	0	0	0	0	0	513	511	515	32	0	
6	0	0	0	0	0	517	514	508	32	0	
7	0	0	0	0	2	514	515	508	32	0	
8	0	0	0	0	0	513	513	512	31	0	
9	0	0	0	0	0	511	512	513	32	0	
10	0	0	0	0	0	508	510	512	31	0	
11	0	0	0	0	0	509	509	509	31	0	
12	0	0	0	0	0	507	507	510	31	0	
13	0	0	0	0	0	508	501	511	32	0	
14	0	0	0	0	0	514	503	512	32	0	
15	0	0	0	0	2	519	507	510	32	0	
0	0	0	0	0	0	523	512	508	31	0	
1	0	0	0	0	0	521	514	506	32	0	
2	0	0	0	0	0	519	519	508	31	0	
3	0	0	0	0	0	518	517	509	31	0	
4	0	0	0	0	0	518	515	512	32	0	
5	0	0	0	0	0	515	508	513	31	0	
6	0	0	0	0	0	516	507	510	31	0	
7	0	0	0	0	2	512	504	511	32	0	
8	0	0	0	0	0	509	503	513	32	0	
9	0	0	0	0	0	511	505	512	32	0	
10	0	0	0	0	0	511	510	511	32	0	
11	0	0	0	0	0	515	511	511	31	0	
12	0	0	0	0	0	519	511	511	31	0	
13	0	0	0	0	0	517	512	511	31	0	
14	0	0	0	0	0	518	507	512	31	0	
15	0	0	0	0	2	519	503	510	31	0	
0	0	0	0	0	0	513	506	508	31	0	
1	0	0	0	0	0	507	508	508	31	0	
2	0	0	0	0	0	504	509	508	32	0	
3	0	0	0	0	0	498	512	510	32	0	
4	0	0	0	0	0	499	505	515	32	0	
5	0	0	0	0	0	500	507	519	32	0	
6	0	0	0	0	0	509	511	515	32	0	
7	0	0	0	0	2	519	512	509	32	0	
8	0	0	0	0	0	528	513	507	32	0	
9	0	0	0	0	0	529	513	507	32	0	
10	0	0	0	0	0	525	513	511	31	0	
11	0	0	0	0	0	519	509	514	32	0	
12	0	0	0	0	0	515	508	515	32	0	
13	0	0	0	0	0	514	507	513	31	0	
14	0	0	0	0	0	510	505	514	31	0	
15	0	0	0	0	1	506	508	518	32	0	
0	0	0	0	0	0	507	510	516	31	0	
1	0	0	0	0	0	510	507	511	32	0	
2	0	0	0	0	0	511	508	507	32	0	
3	0	0	0	0	0	509	506	512	32	0	
4	0	0	0	0	0	508	510	512	32	0	
5	0	0	0	0	0	512	515	514	32	0	
6	0	0	0	0	0	514	511	513	32	0	
7	0	0	0	0	1	514	511	514	32	0	
8	0	0	0	0	0	518	510	516	32	0	
9	0	0	0	0	0	519	511	514	32	0	
10	0	0	0	0	0	523	511	508	31	0	
11	0	0	0	0	0	524	516	506	31	0	
12	0	0	0	0	0	520	511	507	31	0	
13	0	0	0	0	0	519	514	512	31	0	
14	0	0	0	0	0	518	510	513	31	0	
15	0	0	0	0	2	514	509	512	31	0	
0	0	0	0	0	0	510	508	508	31	0	
1	0	0	0	0	0	508	505	507	32	0	
2	0	0	0	0	0	504	504	507	31	0	
3	0	0	0	0	0	504	507	513	32	0	
4	0	0	0	0	0	509	511	513	32	0	
5	0	0	0	0	0	515	513	509	32	0	
6	0	0	0	0	0	516	515	508	32	0	
7	0	0	0	0	2	516	511	506	32	0	
8	0	0	0	0	0	512	511	507	31	0	
9	0	0	0	0	0	511	511	511	31	0	
10	0	0	0	0	0	513	508	512	31	0	
11	0	0	0	0	0	518	507	510	31	0	
12	0	0	0	0	0	521	512	508	31	0	
13	0	0	0	0	0	524	505	512	32	0	
14	0	0	0	0	0	524	503	510	32	0	
15	0	0	0	0	2	515	508	510	32	0	
0	0	0	0	0	0	512	508	511	32	0	
1	0	0	0	0	0	507	506	507	31	0	
2	0	0	0	0	0	502	506	510	32	0	
3	0	0	0	0	0	505	507	512	31	0	
4	0	0	0	0	0	507	505	515	32	0	
5	0	0	0	0	0	508	506	514	32	0	
6	0	0	0	0	0	516	510	514	32	0	
7	0	0	0	0	2	519	511	517	32	0	
8	0	0	0	0	0	516	514	515	32	0	
9	0	0	0	0	0	515	515	514	32	0	
10	0	0	0	0	0	516	520	513	31	0	
11	0	0	0	0	0	522	519	514	32	0	
12	0	0	0	0	0	527	513	515	32	0	
13	0	0	0	0	0	524	505	515	32	0	
14	0	0	0	0	0	516	506	508	31	0	
15	0	0	0	0	2	511	504	503	31	0	
0	0	0	0	0	0	507	504	503	31	0	
1	0	0	0	0	0	506	508	508	31	0	
2	0	0	0	0	0	508	507	509	31	0	
3	0	0	0	0	0	511	507	514	31	0	
4	0	0	0	0	0	517	507	511	32	0	
5	0	0	0	0	0	523	508	509	32	0	
6	0	0	0	0	0	516	510	510	32	0	
7	0	0	0	0	2	512	513	506	32	0	
8	0	0	0	0	0	511	515	510	32	0	
9	0	0	0	0	0	506	521	515	31	0	
10	0	0	0	0	0	511	514	517	31	0	
11	0	0	0	0	0	513	511	511	31	0	
12	0	0	0	0	0	511	504	510	31	0	
13	0	0	0	0	0	508	502	511	31	0	
14	0	0	0	0	0	509	504	511	31	0	
15	0	0	0	0	2	511	507	511	32	0	
0	0	0	0	0	0	512	508	514	32	0	
1	0	0	0	0	0	516	509	516	32	0	
2	0	0	0	0	0	516	512	513	32	0	
3	0	0	0	0	0	519	512	512	32	0	
4	0	0	0	0	0	523	508	510	31	0	
5	0	0	0	0	0	524	506	511	31	0	
6	0	0	0	0	0	522	512	510	32	0	
7	0	0	0	0	2	523	511	510	32	0	
8	0	0	0	0	0	518	514	514	32	0	
9	0	0	0	0	0	509	521	509	31	0	
10	0	0	0	0	0	505	518	509	31	0	
11	0	0	0	0	0	503	511	509	31	0	
12	0	0	0	0	0	504	510	509	31	0	
13	0	0	0	0	0	508	508	507	31	0	
14	0	0	0	0	0	509	512	511	31	0	
15	0	0	0	0	2	509	515	516	32	0	
0	0	0	0	0	0	513	509	514	32	0	
1	0	0	0	0	0	513	508	506	31	0	
2	0	0	0	0	0	520	502	503	32	0	
3	0	0	0	0	0	520	495	511	32	0	
4	0	0	0	0	0	519	492	516	32	0	
5	0	0	0	0	0	517	496	517	32	0	
6	0	0	0	0	0	521	502	511	32	0	
7	0	0	0	0	2	523	508	509	32	0	
8	0	0	0	0	0	519	515	509	32	0	
9	0	0	0	0	0	513	515	514	32	0	
10	0	0	0	0	0	510	523	512	31	0	
11	0	0	0	0	0	509	524	515	31	0	
12	0	0	0	0	0	513	518	507	31	0	
13	0	0	0	0	0	510	514	507	31	0	
14	0	0	0	0	0	509	507	507	31	0	
15	0	0	0	0	2	508	502	510	31	0	
0	0	0	0	0	0	509	499	512	31	0	
1	0	0	0	0	0	510	507	513	31	0	
2	0	0	0	0	0	514	509	513	31	0	
3	0	0	0	0	0	515	510	514	32	0	
4	0	0	0	0	0	514	514	513	32	0	
5	0	0	0	0	0	518	516	511	32	0	
6	0	0	0	0	0	517	522	516	32	0	
7	0	0	0	0	1	513	518	516	32	0	
8	0	0	0	0	0	513	509	508	31	0	
9	0	0	0	0	0	519	501	503	31	0	
10	0	0	0	0	0	516	495	502	31	0	
11	0	0	0	0	0	511	502	510	32	0	
12	0	0	0	0	0	513	505	512	32	0	
13	0	0	0	0	0	515	507	512	32	0	
14	0	0	0	0	0	520	509	508	32	0	
15	0	0	0	0	1	519	513	506	31	0	
0	0	0	0	0	0	518	509	509	32	0	
1	0	0	0	0	0	515	510	513	32	0	
2	0	0	0	0	0	513	510	514	31	0	
3	0	0	0	0	0	512	511	516	31	0	
4	0	0	0	0	0	509	513	514	31	0	
5	0	0	0	0	0	506	512	511	32	0	
6	0	0	0	0	0	503	510	509	32	0	
7	0	0	0	0	1	503	513	512	31	0	
8	0	0	0	0	0	509	512	515	32	0	
9	0	0	0	0	0	513	511	513	32	0	
10	0	0	0	0	0	516	512	512	32	0	
11	0	0	0	0	0	519	511	511	32	0	
12	0	0	0	0	0	514	510	511	32	0	
13	0	0	0	0	0	519	506	510	32	0	
14	0	0	0	0	0	517	506	509	31	0	
15	0	0	0	0	2	518	508	508	32	0	
0	0	0	0	0	0	522	510	515	32	0	
1	0	0	0	0	0	513	510	516	31	0	
2	0	0	0	0	0	510	507	510	31	0	
3	0	0	0	0	0	506	513	509	31	0	
4	0	0	0	0	0	507	513	509	31	0	
5	0	0	0	0	0	513	509	509	32	0	
6	0	0	0	0	0	512	505	513	32	0	
7	0	0	0	0	2	515	505	513	32	0	
8	0	0	0	0	0	513	507	509	31	0	
9	0	0	0	0	0	513	510	513	31	0	
10	0	0	0	0	0	516	511	513	31	0	
11	0	0	0	0	0	514	511	510	32	0	
12	0	0	0	0	0	517	511	513	32	0	
13	0	0	0	0	0	521	511	515	32	0	
14	0	0	0	0	0	524	509	514	32	0	
15	0	0	0	0	2	524	513	510	31	0	
0	0	0	0	0	0	522	514	505	31	0	
1	0	0	0	0	0	514	513	508	31	0	
2	0	0	0	0	0	510	513	513	32	0	
3	0	0	0	0	0	507	510	509	32	0	
4	0	0	0	0	0	508	505	508	32	0	
5	0	0	0	0	0	513	505	506	31	0	
6	0	0	0	0	0	514	510	508	32	0	
7	0	0	0	0	2	515	508	504	32	0	
8	0	0	0	0	0	511	507	504	31	0	
9	0	0	0	0	0	506	510	509	31	0	
