# OpenSignals Text File Format. Version 1
# {"98:D3:51:FE:6E:5C": {"position": 0, "device": "bitalino_rev", "device name": "98:D3:51:FE:6E:5C", "device connection": "BTH98:D3:51:FE:6E:5C", "sampling rate": 1000, "resolution": [4, 1, 1, 1, 1, 10, 10, 10, 10, 6, 6], "firmware version": 1282, "comments": "", "keywords": "", "mode": 0, "sync interval": 2, "date": "2026-6-12", "time": "12:58:11.566", "channels": [1, 2, 3, 4, 5, 6], "sensor": ["RAW", "RAW", "RAW", "RAW", "RAW", "RAW"], "label": ["A1", "A2", "A3", "A4", "A5", "A6"], "column": ["nSeq", "I1", "I2", "O1", "O2", "A1", "A2", "A3", "A4", "A5", "A6"], "special": [{}, {}, {}, {}, {}, {}], "digital IO": [0, 0, 1, 1]}}
# EndOfHeader
0	0	0	0	0	2	514	508	510	32	0	
1	0	0	0	0	0	514	510	511	32	0	
2	0	0	0	0	0	512	509	511	32	0	
3	0	0	0	0	0	515	511	511	32	0	
4	0	0	0	0	0	516	508	508	31	0	
5	0	0	0	0	0	516	511	510	31	0	
6	0	0	0	0	0	516	511	510	31	0	
7	0	0	0	0	0	511	511	514	32	0	
8	0	0	0	0	2	511	511	516	32	0	
9	0	0	0	0	0	510	508	511	32	0	
10	0	0	0	0	0	513	507	512	32	0	
11	0	0	0	0	0	518	510	509	31	0	
12	0	0	0	0	0	513	511	509	32	0	
13	0	0	0	0	0	511	510	511	32	0	
14	0	0	0	0	0	513	511	510	32	0	
15	0	0	0	0	0	512	512	509	32	0	
0	0	0	0	0	2	515	509	510	31	0	
1	0	0	0	0	0	516	507	515	32	0	
2	0	0	0	0	0	514	508	512	31	0	
3	0	0	0	0	0	511	511	513	32	0	
4	0	0	0	0	0	510	510	515	32	0	
5	0	0	0	0	0	513	512	509	31	0	
6	0	0	0	0	0	514	511	510	31	0	
7	0	0	0	0	0	513	508	511	31	0	
8	0	0	0	0	2	514	511	512	31	0	
9	0	0	0	0	0	517	509	510	32	0	
10	0	0	0	0	0	518	509	511	32	0	
11	0	0	0	0	0	516	513	508	31	0	
12	0	0	0	0	0	515	508	506	32	0	
13	0	0	0	0	0	513	511	505	32	0	
14	0	0	0	0	0	513	509	508	31	0	
15	0	0	0	0	0	512	508	516	32	0	
0	0	0	0	0	2	513	509	515	32	0	
1	0	0	0	0	0	511	511	516	32	0	
2	0	0	0	0	0	513	508	508	31	0	
3	0	0	0	0	0	513	508	510	31	0	
4	0	0	0	0	0	515	508	514	32	0	
5	0	0	0	0	0	512	512	518	32	0	
6	0	0	0	0	0	513	512	511	31	0	
7	0	0	0	0	0	515	511	511	31	0	
8	0	0	0	0	1	515	511	511	32	0	
9	0	0	0	0	0	516	509	512	31	0	
10	0	0	0	0	0	515	511	510	32	0	
11	0	0	0	0	0	517	511	510	32	0	
12	0	0	0	0	0	515	509	510	31	0	
13	0	0	0	0	0	513	510	510	31	0	
14	0	0	0	0	0	515	511	510	31	0	
15	0	0	0	0	0	513	511	510	31	0	
0	0	0	0	0	1	516	507	509	32	0	
1	0	0	0	0	0	515	504	507	32	0	
2	0	0	0	0	0	514	510	510	31	0	
3	0	0	0	0	0	514	513	511	31	0	
4	0	0	0	0	0	514	511	512	31	0	
5	0	0	0	0	0	509	510	513	31	0	
6	0	0	0	0	0	508	512	513	32	0	
7	0	0	0	0	0	511	508	513	32	0	
8	0	0	0	0	1	510	506	513	32	0	
9	0	0	0	0	0	512	508	514	32	0	
10	0	0	0	0	0	513	509	510	31	0	
11	0	0	0	0	0	515	508	510	32	0	
12	0	0	0	0	0	513	508	515	32	0	
13	0	0	0	0	0	515	511	511	31	0	
14	0	0	0	0	0	518	513	509	31	0	
15	0	0	0	0	0	514	510	508	31	0	
0	0	0	0	0	2	514	511	511	32	0	
1	0	0	0	0	0	515	511	510	32	0	
2	0	0	0	0	0	514	510	509	31	0	
3	0	0	0	0	0	513	507	509	32	0	
4	0	0	0	0	0	514	508	512	32	0	
5	0	0	0	0	0	515	509	511	32	0	
6	0	0	0	0	0	513	508	510	31	0	
7	0	0	0	0	0	513	508	510	32	0	
8	0	0	0	0	2	511	508	512	32	0	
9	0	0	0	0	0	513	510	512	31	0	
10	0	0	0	0	0	512	512	511	31	0	
11	0	0	0	0	0	512	511	509	31	0	
12	0	0	0	0	0	515	511	507	31	0	
13	0	0	0	0	0	512	509	510	31	0	
14	0	0	0	0	0	515	512	512	31	0	
15	0	0	0	0	0	513	511	514	32	0	
0	0	0	0	0	2	511	508	514	32	0	
1	0	0	0	0	0	513	509	513	31	0	
2	0	0	0	0	0	513	508	511	32	0	
3	0	0	0	0	0	516	510	507	32	0	
4	0	0	0	0	0	515	510	511	31	0	
5	0	0	0	0	0	514	511	513	31	0	
6	0	0	0	0	0	514	511	511	32	0	
7	0	0	0	0	0	515	509	506	32	0	
8	0	0	0	0	2	517	510	505	31	0	
9	0	0	0	0	0	517	511	506	32	0	
10	0	0	0	0	0	517	510	509	32	0	
11	0	0	0	0	0	515	510	519	32	0	
12	0	0	0	0	0	511	507	518	32	0	
13	0	0	0	0	0	511	510	513	32	0	
14	0	0	0	0	0	510	512	511	32	0	
15	0	0	0	0	0	511	510	512	32	0	
0	0	0	0	0	2	513	507	515	32	0	
1	0	0	0	0	0	512	506	515	32	0	
2	0	0	0	0	0	511	511	509	31	0	
3	0	0	0	0	0	515	509	507	31	0	
4	0	0	0	0	0	516	505	509	32	0	
5	0	0	0	0	0	514	508	510	32	0	
6	0	0	0	0	0	513	507	512	31	0	
7	0	0	0	0	0	513	509	505	31	0	
8	0	0	0	0	2	516	511	507	31	0	
9	0	0	0	0	0	513	511	516	32	0	
10	0	0	0	0	0	510	511	516	31	0	
11	0	0	0	0	0	512	512	516	31	0	
12	0	0	0	0	0	516	511	506	31	0	
13	0	0	0	0	0	515	511	503	31	0	
14	0	0	0	0	0	515	509	505	31	0	
15	0	0	0	0	0	513	507	515	32	0	
0	0	0	0	0	2	511	508	516	32	0	
1	0	0	0	0	0	515	512	510	32	0	
2	0	0	0	0	0	515	510	509	32	0	
3	0	0	0	0	0	516	513	510	31	0	
4	0	0	0	0	0	513	510	516	32	0	
5	0	0	0	0	0	513	510	515	32	0	
6	0	0	0	0	0	513	511	514	31	0	
7	0	0	0	0	0	512	509	507	31	0	
8	0	0	0	0	2	514	510	509	32	0	
9	0	0	0	0	0	515	507	507	32	0	
10	0	0	0	0	0	514	508	507	32	0	
11	0	0	0	0	0	513	508	515	32	0	
12	0	0	0	0	0	514	509	515	32	0	
13	0	0	0	0	0	515	510	512	32	0	
14	0	0	0	0	0	516	507	508	32	0	
15	0	0	0	0	0	517	510	508	31	0	
0	0	0	0	0	2	515	510	505	31	0	
1	0	0	0	0	0	513	512	510	31	0	
2	0	0	0	0	0	514	512	512	31	0	
3	0	0	0	0	0	509	508	525	32	0	
4	0	0	0	0	0	509	508	520	32	0	
5	0	0	0	0	0	515	508	511	31	0	
6	0	0	0	0	0	515	508	511	31	0	
7	0	0	0	0	0	515	510	510	31	0	
8	0	0	0	0	2	513	511	510	31	0	
9	0	0	0	0	0	515	509	510	32	0	
10	0	0	0	0	0	516	511	509	32	0	
11	0	0	0	0	0	515	512	512	31	0	
12	0	0	0	0	0	514	511	513	31	0	
13	0	0	0	0	0	516	513	502	31	0	
14	0	0	0	0	0	516	512	506	32	0	
15	0	0	0	0	0	511	510	513	31	0	
0	0	0	0	0	2	510	508	516	32	0	
1	0	0	0	0	0	514	506	506	32	0	
2	0	0	0	0	0	513	504	512	32	0	
3	0	0	0	0	0	511	506	517	32	0	
4	0	0	0	0	0	508	510	516	32	0	
5	0	0	0	0	0	508	508	519	32	0	
6	0	0	0	0	0	514	512	510	31	0	
7	0	0	0	0	0	514	511	509	31	0	
8	0	0	0	0	1	514	515	508	31	0	
9	0	0	0	0	0	515	513	509	31	0	
10	0	0	0	0	0	516	507	508	32	0	
11	0	0	0	0	0	517	510	508	31	0	
12	0	0	0	0	0	519	508	503	31	0	
13	0	0	0	0	0	519	508	502	32	0	
14	0	0	0	0	0	512	505	516	32	0	
15	0	0	0	0	0	504	508	528	32	0	
0	0	0	0	0	1	511	509	514	31	0	
1	0	0	0	0	0	515	509	509	32	0	
2	0	0	0	0	0	515	510	511	32	0	
3	0	0	0	0	0	516	510	506	31	0	
4	0	0	0	0	0	516	513	511	32	0	
5	0	0	0	0	0	515	511	512	32	0	
6	0	0	0	0	0	512	511	513	31	0	
7	0	0	0	0	0	510	512	510	31	0	
8	0	0	0	0	2	511	508	511	31	0	
9	0	0	0	0	0	511	510	515	31	0	
10	0	0	0	0	0	513	508	518	32	0	
11	0	0	0	0	0	515	508	512	32	0	
12	0	0	0	0	0	514	512	512	31	0	
13	0	0	0	0	0	513	512	513	31	0	
14	0	0	0	0	0	514	510	509	32	0	
15	0	0	0	0	0	514	503	511	32	0	
0	0	0	0	0	2	514	505	508	32	0	
1	0	0	0	0	0	517	510	508	31	0	
2	0	0	0	0	0	517	511	508	31	0	
3	0	0	0	0	0	512	511	512	31	0	
4	0	0	0	0	0	518	510	509	31	0	
5	0	0	0	0	0	516	508	508	31	0	
6	0	0	0	0	0	512	510	510	31	0	
7	0	0	0	0	0	514	511	512	31	0	
8	0	0	0	0	2	513	509	512	31	0	
9	0	0	0	0	0	513	509	512	32	0	
10	0	0	0	0	0	509	510	517	31	0	
11	0	0	0	0	0	513	508	516	32	0	
12	0	0	0	0	0	516	508	511	32	0	
13	0	0	0	0	0	513	509	512	32	0	
14	0	0	0	0	0	515	513	513	31	0	
15	0	0	0	0	0	516	513	508	31	0	
0	0	0	0	0	2	515	512	512	31	0	
1	0	0	0	0	0	518	511	507	31	0	
2	0	0	0	0	0	517	508	505	32	0	
3	0	0	0	0	0	515	510	509	32	0	
4	0	0	0	0	0	515	507	511	32	0	
5	0	0	0	0	0	514	511	508	31	0	
6	0	0	0	0	0	513	511	509	31	0	
7	0	0	0	0	0	513	510	505	31	0	
8	0	0	0	0	2	507	510	516	32	0	
9	0	0	0	0	0	506	507	519	32	0	
10	0	0	0	0	0	509	508	517	32	0	
11	0	0	0	0	0	513	508	513	32	0	
12	0	0	0	0	0	514	511	514	32	0	
13	0	0	0	0	0	517	510	511	31	0	
14	0	0	0	0	0	517	508	508	32	0	
15	0	0	0	0	0	514	508	511	32	0	
0	0	0	0	0	2	516	510	508	31	0	
1	0	0	0	0	0	517	510	505	31	0	
2	0	0	0	0	0	515	508	512	32	0	
3	0	0	0	0	0	512	510	515	32	0	
4	0	0	0	0	0	508	510	514	32	0	
5	0	0	0	0	0	516	511	510	32	0	
6	0	0	0	0	0	517	514	508	31	0	
7	0	0	0	0	0	516	512	509	31	0	
8	0	0	0	0	2	513	510	510	31	0	
9	0	0	0	0	0	513	511	512	31	0	
10	0	0	0	0	0	513	510	516	32	0	
11	0	0	0	0	0	512	507	515	32	0	
12	0	0	0	0	0	514	508	510	32	0	
13	0	0	0	0	0	513	507	508	32	0	
14	0	0	0	0	0	512	508	510	32	0	
15	0	0	0	0	0	511	510	511	31	0	
0	0	0	0	0	2	513	511	510	31	0	
1	0	0	0	0	0	515	511	513	32	0	
2	0	0	0	0	0	515	508	509	32	0	
3	0	0	0	0	0	517	509	504	31	0	
4	0	0	0	0	0	515	508	504	32	0	
5	0	0	0	0	0	510	513	516	32	0	
6	0	0	0	0	0	511	512	518	31	0	
7	0	0	0	0	0	513	511	517	31	0	
8	0	0	0	0	2	512	511	515	32	0	
9	0	0	0	0	0	512	510	512	32	0	
10	0	0	0	0	0	515	510	508	31	0	
11	0	0	0	0	0	519	511	504	31	0	
12	0	0	0	0	0	516	510	513	32	0	
13	0	0	0	0	0	512	511	517	32	0	
14	0	0	0	0	0	515	507	509	32	0	
15	0	0	0	0	0	510	510	513	32	0	
0	0	0	0	0	2	510	509	514	32	0	
1	0	0	0	0	0	512	513	514	32	0	
2	0	0	0	0	0	515	510	515	32	0	
3	0	0	0	0	0	518	509	512	32	0	
4	0	0	0	0	0	516	509	510	32	0	
5	0	0	0	0	0	516	510	510	32	0	
6	0	0	0	0	0	517	508	509	32	0	
7	0	0	0	0	0	518	506	508	31	0	
8	0	0	0	0	2	512	509	510	31	0	
9	0	0	0	0	0	511	510	515	31	0	
10	0	0	0	0	0	511	513	510	32	0	
11	0	0	0	0	0	513	511	511	31	0	
12	0	0	0	0	0	512	508	509	31	0	
13	0	0	0	0	0	513	506	507	32	0	
14	0	0	0	0	0	514	506	505	31	0	
15	0	0	0	0	0	515	506	507	31	0	
0	0	0	0	0	1	513	506	504	31	0	
1	0	0	0	0	0	511	506	511	31	0	
2	0	0	0	0	0	513	508	508	31	0	
3	0	0	0	0	0	516	509	503	31	0	
4	0	0	0	0	0	515	507	501	31	0	
5	0	0	0	0	0	512	509	511	32	0	
6	0	0	0	0	0	512	512	513	31	0	
7	0	0	0	0	0	517	512	503	31	0	
8	0	0	0	0	1	519	510	509	31	0	
9	0	0	0	0	0	512	515	519	31	0	
10	0	0	0	0	0	509	513	519	32	0	
11	0	0	0	0	0	510	507	520	32	0	
12	0	0	0	0	0	511	509	517	32	0	
13	0	0	0	0	0	513	508	513	32	0	
14	0	0	0	0	0	515	510	512	31	0	
15	0	0	0	0	0	513	512	514	31	0	
0	0	0	0	0	1	512	512	512	31	0	
1	0	0	0	0	0	515	511	509	31	0	
2	0	0	0	0	0	517	509	504	31	0	
3	0	0	0	0	0	516	510	505	31	0	
4	0	0	0	0	0	514	513	511	32	0	
5	0	0	0	0	0	513	515	518	31	0	
6	0	0	0	0	0	512	513	513	31	0	
7	0	0	0	0	0	512	510	512	32	0	
8	0	0	0	0	2	513	506	514	32	0	
9	0	0	0	0	0	514	505	515	32	0	
10	0	0	0	0	0	512	507	514	32	0	
11	0	0	0	0	0	514	505	511	32	0	
12	0	0	0	0	0	513	506	512	32	0	
13	0	0	0	0	0	515	509	514	32	0	
14	0	0	0	0	0	515	510	511	31	0	
15	0	0	0	0	0	515	512	508	31	0	
0	0	0	0	0	2	515	511	506	31	0	
1	0	0	0	0	0	513	515	508	31	0	
2	0	0	0	0	0	516	512	508	31	0	
3	0	0	0	0	0	513	512	514	32	0	
4	0	0	0	0	0	515	509	511	32	0	
5	0	0	0	0	0	515	510	508	32	0	
6	0	0	0	0	0	513	511	511	31	0	
7	0	0	0	0	0	515	511	511	31	0	
8	0	0	0	0	2	514	509	511	32	0	
9	0	0	0	0	0	514	511	513	31	0	
10	0	0	0	0	0	513	511	510	31	0	
11	0	0	0	0	0	513	510	513	32	0	
12	0	0	0	0	0	512	507	510	31	0	
13	0	0	0	0	0	511	509	511	31	0	
14	0	0	0	0	0	514	508	510	31	0	
15	0	0	0	0	0	514	509	511	32	0	
0	0	0	0	0	2	514	508	514	32	0	
1	0	0	0	0	0	515	508	509	31	0	
2	0	0	0	0	0	516	509	510	31	0	
3	0	0	0	0	0	511	508	511	32	0	
4	0	0	0	0	0	512	509	512	32	0	
5	0	0	0	0	0	514	511	512	32	0	
6	0	0	0	0	0	515	512	511	32	0	
7	0	0	0	0	0	514	511	510	31	0	
8	0	0	0	0	2	516	511	507	31	0	
9	0	0	0	0	0	516	512	510	31	0	
10	0	0	0	0	0	516	510	511	32	0	
11	0	0	0	0	0	515	512	513	32	0	
12	0	0	0	0	0	510	508	514	32	0	
13	0	0	0	0	0	510	510	513	31	0	
14	0	0	0	0	0	514	509	510	31	0	
15	0	0	0	0	0	514	510	511	31	0	
0	0	0	0	0	2	515	509	514	32	0	
1	0	0	0	0	0	513	510	511	32	0	
2	0	0	0	0	0	513	510	512	32	0	
3	0	0	0	0	0	515	510	512	31	0	
4	0	0	0	0	0	514	513	508	31	0	
5	0	0	0	0	0	514	511	511	31	0	
6	0	0	0	0	0	517	508	508	31	0	
7	0	0	0	0	0	515	508	514	32	0	
8	0	0	0	0	2	515	510	511	32	0	
9	0	0	0	0	0	513	508	511	32	0	
10	0	0	0	0	0	513	509	510	32	0	
11	0	0	0	0	0	516	511	504	32	0	
12	0	0	0	0	0	513	510	508	32	0	
13	0	0	0	0	0	510	510	516	31	0	
14	0	0	0	0	0	513	512	513	31	0	
15	0	0	0	0	0	514	510	512	31	0	
0	0	0	0	0	2	514	508	515	32	0	
1	0	0	0	0	0	515	508	514	32	0	
2	0	0	0	0	0	515	510	514	32	0	
3	0	0	0	0	0	512	510	510	32	0	
4	0	0	0	0	0	514	509	507	31	0	
5	0	0	0	0	0	516	511	507	31	0	
6	0	0	0	0	0	514	507	508	32	0	
7	0	0	0	0	0	512	508	513	31	0	
8	0	0	0	0	2	512	509	511	31	0	
9	0	0	0	0	0	512	508	511	31	0	
10	0	0	0	0	0	513	507	515	31	0	
11	0	0	0	0	0	515	512	508	31	0	
12	0	0	0	0	0	518	509	507	31	0	
13	0	0	0	0	0	512	508	515	32	0	
14	0	0	0	0	0	508	508	519	32	0	
15	0	0	0	0	0	510	510	511	32	0	
0	0	0	0	0	2	515	510	509	31	0	
1	0	0	0	0	0	517	512	511	31	0	
2	0	0	0	0	0	516	512	510	31	0	
3	0	0	0	0	0	517	508	506	32	0	
4	0	0	0	0	0	515	510	508	31	0	
5	0	0	0	0	0	515	511	511	31	0	
6	0	0	0	0	0	514	508	513	32	0	
7	0	0	0	0	0	512	508	510	32	0	
8	0	0	0	0	2	511	508	511	32	0	
9	0	0	0	0	0	511	509	513	31	0	
10	0	0	0	0	0	512	510	514	32	0	
11	0	0	0	0	0	512	510	511	31	0	
12	0	0	0	0	0	515	512	512	32	0	
13	0	0	0	0	0	512	509	515	32	0	
14	0	0	0	0	0	512	512	516	32	0	
15	0	0	0	0	0	512	507	514	32	0	
0	0	0	0	0	1	513	511	512	32	0	
1	0	0	0	0	0	516	511	510	32	0	
2	0	0	0	0	0	516	511	509	31	0	
3	0	0	0	0	0	515	509	507	31	0	
4	0	0	0	0	0	512	510	510	31	0	
5	0	0	0	0	0	514	510	510	31	0	
6	0	0	0	0	0	515	511	508	31	0	
7	0	0	0	0	0	514	510	509	31	0	
8	0	0	0	0	1	515	509	510	32	0	
9	0	0	0	0	0	512	510	512	32	0	
10	0	0	0	0	0	512	506	513	32	0	
11	0	0	0	0	0	513	508	512	32	0	
12	0	0	0	0	0	511	507	514	32	0	
13	0	0	0	0	0	511	508	512	32	0	
14	0	0	0	0	0	513	509	511	32	0	
15	0	0	0	0	0	514	510	512	31	0	
0	0	0	0	0	1	514	511	515	32	0	
1	0	0	0	0	0	515	510	510	32	0	
2	0	0	0	0	0	515	510	512	32	0	
3	0	0	0	0	0	517	510	512	31	0	
4	0	0	0	0	0	515	512	511	31	0	
5	0	0	0	0	0	513	511	509	31	0	
6	0	0	0	0	0	514	513	506	31	0	
7	0	0	0	0	0	513	511	506	32	0	
8	0	0	0	0	3	518	505	505	32	0	
9	0	0	0	0	0	512	510	518	32	0	
10	0	0	0	0	0	508	510	523	32	0	
11	0	0	0	0	0	514	510	513	31	0	
12	0	0	0	0	0	513	511	511	31	0	
13	0	0	0	0	0	513	510	510	31	0	
14	0	0	0	0	0	517	509	512	31	0	
15	0	0	0	0	0	513	509	512	32	0	
0	0	0	0	0	2	513	510	511	32	0	
1	0	0	0	0	0	514	511	510	32	0	
2	0	0	0	0	0	518	510	509	31	0	
3	0	0	0	0	0	516	509	511	31	0	
4	0	0	0	0	0	514	507	511	32	0	
5	0	0	0	0	0	512	508	514	32	0	
6	0	0	0	0	0	514	506	514	32	0	
7	0	0	0	0	0	515	508	511	32	0	
8	0	0	0	0	2	512	507	514	32	0	
9	0	0	0	0	0	510	510	515	32	0	
10	0	0	0	0	0	512	512	506	31	0	
11	0	0	0	0	0	515	510	507	31	0	
12	0	0	0	0	0	516	512	512	32	0	
13	0	0	0	0	0	513	511	511	32	0	
14	0	0	0	0	0	515	511	510	31	0	
15	0	0	0	0	0	515	509	512	31	0	
0	0	0	0	0	2	512	508	513	31	0	
1	0	0	0	0	0	512	510	512	32	0	
2	0	0	0	0	0	512	511	510	32	0	
3	0	0	0	0	0	511	509	514	31	0	
4	0	0	0	0	0	513	511	510	31	0	
5	0	0	0	0	0	515	511	511	31	0	
6	0	0	0	0	0	513	508	512	31	0	
7	0	0	0	0	0	514	510	511	31	0	
8	0	0	0	0	2	515	508	512	31	0	
9	0	0	0	0	0	515	510	511	31	0	
10	0	0	0	0	0	517	509	510	32	0	
11	0	0	0	0	0	513	509	512	32	0	
12	0	0	0	0	0	514	509	510	32	0	
13	0	0	0	0	0	515	510	506	31	0	
14	0	0	0	0	0	514	510	502	31	0	
15	0	0	0	0	0	512	509	511	32	0	
0	0	0	0	0	2	511	508	523	32	0	
1	0	0	0	0	0	512	510	512	31	0	
2	0	0	0	0	0	512	509	511	31	0	
3	0	0	0	0	0	516	510	515	32	0	
4	0	0	0	0	0	515	507	512	32	0	
5	0	0	0	0	0	515	509	510	31	0	
6	0	0	0	0	0	516	512	507	31	0	
7	0	0	0	0	0	514	511	511	31	0	
8	0	0	0	0	2	513	513	509	32	0	
9	0	0	0	0	0	515	510	511	32	0	
10	0	0	0	0	0	514	511	515	32	0	
11	0	0	0	0	0	514	512	516	32	0	
12	0	0	0	0	0	515	509	514	32	0	
13	0	0	0	0	0	516	511	508	31	0	
14	0	0	0	0	0	515	510	512	32	0	
15	0	0	0	0	0	513	510	514	32	0	
0	0	0	0	0	2	513	508	514	32	0	
1	0	0	0	0	0	512	510	509	32	0	
2	0	0	0	0	0	514	510	505	32	0	
3	0	0	0	0	0	514	508	508	31	0	
4	0	0	0	0	0	507	510	515	31	0	
5	0	0	0	0	0	512	507	512	31	0	
6	0	0	0	0	0	516	509	510	31	0	
7	0	0	0	0	0	516	510	510	31	0	
8	0	0	0	0	2	513	510	508	31	0	
9	0	0	0	0	0	513	511	510	31	0	
10	0	0	0	0	0	515	511	511	31	0	
11	0	0	0	0	0	517	511	512	32	0	
12	0	0	0	0	0	514	506	513	32	0	
13	0	0	0	0	0	514	505	511	32	0	
14	0	0	0	0	0	513	508	514	32	0	
15	0	0	0	0	0	512	511	512	32	0	
0	0	0	0	0	2	515	513	511	31	0	
1	0	0	0	0	0	514	513	509	31	0	
2	0	0	0	0	0	513	513	510	31	0	
3	0	0	0	0	0	518	512	510	32	0	
4	0	0	0	0	0	515	510	508	32	0	
5	0	0	0	0	0	513	512	511	31	0	
6	0	0	0	0	0	514	509	513	32	0	
7	0	0	0	0	0	511	509	514	32	0	
8	0	0	0	0	2	513	509	510	32	0	
9	0	0	0	0	0	512	507	512	32	0	
10	0	0	0	0	0	514	511	510	32	0	
11	0	0	0	0	0	513	508	509	32	0	
12	0	0	0	0	0	515	510	511	32	0	
13	0	0	0	0	0	512	508	515	32	0	
14	0	0	0	0	0	511	508	515	32	0	
15	0	0	0	0	0	511	510	513	31	0	
0	0	0	0	0	1	512	511	512	31	0	
1	0	0	0	0	0	516	510	508	31	0	
2	0	0	0	0	0	517	509	508	31	0	
3	0	0	0	0	0	515	509	508	31	0	
4	0	0	0	0	0	512	508	509	31	0	
5	0	0	0	0	0	514	508	514	31	0	
6	0	0	0	0	0	513	511	515	32	0	
7	0	0	0	0	0	512	512	515	32	0	
8	0	0	0	0	1	513	507	512	32	0	
9	0	0	0	0	0	516	508	511	32	0	
10	0	0	0	0	0	518	513	508	32	0	
11	0	0	0	0	0	518	508	510	32	0	
12	0	0	0	0	0	515	509	507	32	0	
13	0	0	0	0	0	514	507	508	32	0	
14	0	0	0	0	0	514	505	512	31	0	
15	0	0	0	0	0	510	507	513	31	0	
0	0	0	0	0	2	513	511	506	31	0	
1	0	0	0	0	0	515	515	511	31	0	
2	0	0	0	0	0	512	514	521	32	0	
3	0	0	0	0	0	509	513	518	32	0	
4	0	0	0	0	0	512	513	510	31	0	
5	0	0	0	0	0	513	510	510	32	0	
6	0	0	0	0	0	513	511	510	31	0	
7	0	0	0	0	0	513	508	512	32	0	
8	0	0	0	0	2	514	507	513	31	0	
9	0	0	0	0	0	516	507	508	32	0	
10	0	0	0	0	0	514	510	510	32	0	
11	0	0	0	0	0	514	508	509	32	0	
12	0	0	0	0	0	514	509	508	32	0	
13	0	0	0	0	0	512	510	509	31	0	
14	0	0	0	0	0	513	510	510	32	0	
15	0	0	0	0	0	516	508	511	31	0	
0	0	0	0	0	2	513	510	514	32	0	
1	0	0	0	0	0	512	510	514	32	0	
2	0	0	0	0	0	513	509	515	32	0	
3	0	0	0	0	0	511	509	517	31	0	
4	0	0	0	0	0	513	511	509	31	0	
5	0	0	0	0	0	514	514	508	31	0	
6	0	0	0	0	0	516	513	510	31	0	
7	0	0	0	0	0	517	514	507	31	0	
8	0	0	0	0	2	518	511	506	31	0	
9	0	0	0	0	0	518	508	505	32	0	
10	0	0	0	0	0	517	510	510	32	0	
11	0	0	0	0	0	513	506	511	32	0	
12	0	0	0	0	0	513	507	510	31	0	
13	0	0	0	0	0	511	510	511	31	0	
14	0	0	0	0	0	512	508	511	32	0	
15	0	0	0	0	0	513	508	512	32	0	
0	0	0	0	0	2	510	509	511	31	0	
1	0	0	0	0	0	510	510	513	31	0	
2	0	0	0	0	0	513	511	513	31	0	
3	0	0	0	0	0	517	509	513	31	0	
4	0	0	0	0	0	517	511	514	32	0	
5	0	0	0	0	0	512	510	510	31	0	
6	0	0	0	0	0	517	512	504	31	0	
7	0	0	0	0	0	518	513	504	31	0	
8	0	0	0	0	2	519	511	507	31	0	
9	0	0	0	0	0	514	510	513	31	0	
10	0	0	0	0	0	512	508	514	32	0	
11	0	0	0	0	0	511	509	514	32	0	
12	0	0	0	0	0	510	509	515	32	0	
13	0	0	0	0	0	512	509	519	32	0	
14	0	0	0	0	0	513	508	517	32	0	
15	0	0	0	0	0	515	508	509	32	0	
0	0	0	0	0	2	513	504	511	32	0	
1	0	0	0	0	0	514	508	512	32	0	
2	0	0	0	0	0	512	510	514	32	0	
3	0	0	0	0	0	512	506	517	31	0	
4	0	0	0	0	0	512	510	514	31	0	
5	0	0	0	0	0	513	511	511	31	0	
6	0	0	0	0	0	516	512	509	31	0	
7	0	0	0	0	0	516	512	511	31	0	
8	0	0	0	0	2	515	509	510	31	0	
9	0	0	0	0	0	516	510	507	31	0	
10	0	0	0	0	0	517	509	506	31	0	
11	0	0	0	0	0	514	510	507	31	0	
12	0	0	0	0	0	513	512	510	31	0	
13	0	0	0	0	0	515	511	510	32	0	
14	0	0	0	0	0	517	510	504	32	0	
15	0	0	0	0	0	516	510	505	32	0	
0	0	0	0	0	2	512	508	509	32	0	
1	0	0	0	0	0	512	506	509	32	0	
2	0	0	0	0	0	512	510	513	32	0	
3	0	0	0	0	0	512	510	515	32	0	
4	0	0	0	0	0	512	508	518	32	0	
5	0	0	0	0	0	514	508	518	32	0	
6	0	0	0	0	0	514	509	516	32	0	
7	0	0	0	0	0	515	511	515	32	0	
8	0	0	0	0	2	515	510	510	31	0	
9	0	0	0	0	0	516	512	508	31	0	
10	0	0	0	0	0	513	511	508	31	0	
11	0	0	0	0	0	513	508	508	31	0	
12	0	0	0	0	0	515	509	509	31	0	
13	0	0	0	0	0	515	511	508	31	0	
14	0	0	0	0	0	513	511	505	31	0	
15	0	0	0	0	0	512	510	511	31	0	
0	0	0	0	0	2	511	510	512	31	0	
1	0	0	0	0	0	514	511	515	32	0	
2	0	0	0	0	0	513	508	513	32	0	
3	0	0	0	0	0	513	508	511	32	0	
4	0	0	0	0	0	513	510	511	32	0	
5	0	0	0	0	0	511	509	513	32	0	
6	0	0	0	0	0	512	508	515	32	0	
7	0	0	0	0	0	513	506	514	32	0	
8	0	0	0	0	1	513	509	513	32	0	
9	0	0	0	0	0	515	512	509	32	0	
10	0	0	0	0	0	513	513	509	31	0	
11	0	0	0	0	0	515	511	511	32	0	
12	0	0	0	0	0	515	509	512	32	0	
13	0	0	0	0	0	513	509	515	32	0	
14	0	0	0	0	0	511	510	516	32	0	
15	0	0	0	0	0	510	508	514	32	0	
0	0	0	0	0	1	512	508	510	31	0	
1	0	0	0	0	0	514	511	504	31	0	
2	0	0	0	0	0	513	510	505	31	0	
3	0	0	0	0	0	515	509	504	31	0	
4	0	0	0	0	0	516	510	510	31	0	
5	0	0	0	0	0	518	511	512	32	0	
6	0	0	0	0	0	516	511	515	32	0	
7	0	0	0	0	0	516	511	515	32	0	
8	0	0	0	0	1	514	509	517	32	0	
9	0	0	0	0	0	512	507	518	32	0	
10	0	0	0	0	0	509	508	516	32	0	
11	0	0	0	0	0	512	507	515	32	0	
12	0	0	0	0	0	515	509	510	31	0	
13	0	0	0	0	0	517	509	506	31	0	
14	0	0	0	0	0	517	511	503	31	0	
15	0	0	0	0	0	516	511	504	31	0	
0	0	0	0	0	2	515	513	504	31	0	
1	0	0	0	0	0	513	513	505	31	0	
2	0	0	0	0	0	514	509	508	31	0	
3	0	0	0	0	0	512	510	511	31	0	
4	0	0	0	0	0	513	510	512	31	0	
5	0	0	0	0	0	514	512	515	31	0	
6	0	0	0	0	0	514	511	512	32	0	
7	0	0	0	0	0	515	508	508	32	0	
8	0	0	0	0	2	513	509	510	32	0	
9	0	0	0	0	0	511	508	514	32	0	
10	0	0	0	0	0	512	508	512	32	0	
11	0	0	0	0	0	515	510	512	32	0	
12	0	0	0	0	0	515	512	514	31	0	
13	0	0	0	0	0	514	510	515	32	0	
14	0	0	0	0	0	512	510	518	31	0	
15	0	0	0	0	0	512	507	514	32	0	
0	0	0	0	0	2	511	508	514	32	0	
1	0	0	0	0	0	512	508	510	32	0	
2	0	0	0	0	0	514	509	507	32	0	
3	0	0	0	0	0	515	509	508	32	0	
4	0	0	0	0	0	513	511	510	31	0	
5	0	0	0	0	0	513	510	513	31	0	
6	0	0	0	0	0	514	510	511	31	0	
7	0	0	0	0	0	516	510	506	31	0	
8	0	0	0	0	2	515	511	507	31	0	
9	0	0	0	0	0	512	511	512	31	0	
10	0	0	0	0	0	515	513	510	31	0	
11	0	0	0	0	0	513	511	514	32	0	
12	0	0	0	0	0	514	508	513	32	0	
13	0	0	0	0	0	515	509	513	32	0	
14	0	0	0	0	0	512	508	512	32	0	
15	0	0	0	0	0	512	504	511	32	0	
0	0	0	0	0	2	511	508	515	32	0	
1	0	0	0	0	0	511	508	513	32	0	
2	0	0	0	0	0	515	510	511	32	0	
3	0	0	0	0	0	516	510	506	31	0	
4	0	0	0	0	0	514	512	507	31	0	
5	0	0	0	0	0	515	513	508	32	0	
6	0	0	0	0	0	517	508	510	32	0	
7	0	0	0	0	0	515	508	511	32	0	
8	0	0	0	0	2	515	510	511	32	0	
9	0	0	0	0	0	516	512	515	31	0	
10	0	0	0	0	0	515	510	513	31	0	
11	0	0	0	0	0	513	510	513	31	0	
12	0	0	0	0	0	513	508	512	32	0	
13	0	0	0	0	0	514	505	512	32	0	
14	0	0	0	0	0	511	507	512	32	0	
15	0	0	0	0	0	511	510	517	31	0	
0	0	0	0	0	2	510	508	518	31	0	
1	0	0	0	0	0	511	509	514	32	0	
2	0	0	0	0	0	513	508	514	32	0	
3	0	0	0	0	0	514	507	511	32	0	
4	0	0	0	0	0	513	511	513	32	0	
5	0	0	0	0	0	514	513	510	32	0	
6	0	0	0	0	0	518	512	507	32	0	
7	0	0	0	0	0	517	512	504	32	0	
8	0	0	0	0	2	518	508	506	31	0	
9	0	0	0	0	0	518	509	506	31	0	
10	0	0	0	0	0	515	509	508	31	0	
11	0	0	0	0	0	513	509	511	31	0	
12	0	0	0	0	0	511	510	514	31	0	
13	0	0	0	0	0	510	510	515	31	0	
14	0	0	0	0	0	511	512	510	31	0	
15	0	0	0	0	0	514	511	511	32	0	
0	0	0	0	0	2	515	507	511	32	0	
1	0	0	0	0	0	515	509	509	31	0	
2	0	0	0	0	0	516	510	512	31	0	
3	0	0	0	0	0	515	511	513	31	0	
4	0	0	0	0	0	511	514	511	31	0	
5	0	0	0	0	0	513	512	511	31	0	
6	0	0	0	0	0	515	511	508	31	0	
7	0	0	0	0	0	513	509	511	32	0	
8	0	0	0	0	2	514	507	512	32	0	
9	0	0	0	0	0	513	507	513	32	0	
10	0	0	0	0	0	514	508	511	32	0	
11	0	0	0	0	0	513	507	513	32	0	
12	0	0	0	0	0	515	508	514	31	0	
13	0	0	0	0	0	513	508	513	31	0	
14	0	0	0	0	0	513	510	508	31	0	
15	0	0	0	0	0	515	510	510	31	0	
0	0	0	0	0	2	514	511	508	31	0	
1	0	0	0	0	0	514	511	509	31	0	
2	0	0	0	0	0	515	511	508	31	0	
3	0	0	0	0	0	515	511	512	32	0	
4	0	0	0	0	0	515	508	514	32	0	
5	0	0	0	0	0	510	511	515	32	0	
6	0	0	0	0	0	513	510	515	32	0	
7	0	0	0	0	0	515	508	513	32	0	
8	0	0	0	0	1	513	509	510	31	0	
9	0	0	0	0	0	513	507	511	32	0	
10	0	0	0	0	0	513	508	510	32	0	
11	0	0	0	0	0	513	511	509	32	0	
12	0	0	0	0	0	516	512	510	32	0	
13	0	0	0	0	0	513	511	511	32	0	
14	0	0	0	0	0	512	511	510	31	0	
15	0	0	0	0	0	517	512	508	32	0	
0	0	0	0	0	1	517	507	510	31	0	
1	0	0	0	0	0	515	508	511	31	0	
2	0	0	0	0	0	513	507	512	31	0	
3	0	0	0	0	0	509	511	512	31	0	
4	0	0	0	0	0	512	510	513	32	0	
5	0	0	0	0	0	514	507	510	32	0	
6	0	0	0	0	0	515	508	512	32	0	
7	0	0	0	0	0	512	506	509	32	0	
8	0	0	0	0	1	512	508	512	32	0	
9	0	0	0	0	0	514	507	513	32	0	
10	0	0	0	0	0	514	508	512	32	0	
11	0	0	0	0	0	514	511	512	31	0	
12	0	0	0	0	0	515	513	511	31	0	
13	0	0	0	0	0	515	512	508	31	0	
14	0	0	0	0	0	515	512	511	31	0	
15	0	0	0	0	0	516	513	510	31	0	
0	0	0	0	0	2	515	512	510	31	0	
1	0	0	0	0	0	515	512	512	32	0	
2	0	0	0	0	0	516	510	512	31	0	
3	0	0	0	0	0	513	508	511	32	0	
4	0	0	0	0	0	515	508	510	32	0	
5	0	0	0	0	0	512	507	512	32	0	
6	0	0	0	0	0	513	509	514	32	0	
7	0	0	0	0	0	511	510	512	32	0	
8	0	0	0	0	2	510	510	510	31	0	
9	0	0	0	0	0	512	509	511	31	0	
10	0	0	0	0	0	515	507	510	31	0	
11	0	0	0	0	0	515	509	509	31	0	
12	0	0	0	0	0	513	508	510	31	0	
13	0	0	0	0	0	513	512	512	32	0	
14	0	0	0	0	0	514	511	512	32	0	
15	0	0	0	0	0	515	508	513	32	0	
0	0	0	0	0	2	513	507	515	32	0	
1	0	0	0	0	0	514	509	514	32	0	
2	0	0	0	0	0	515	512	509	32	0	
3	0	0	0	0	0	515	508	511	32	0	
4	0	0	0	0	0	515	510	513	32	0	
5	0	0	0	0	0	515	512	513	31	0	
6	0	0	0	0	0	515	512	512	31	0	
7	0	0	0	0	0	515	511	508	31	0	
8	0	0	0	0	2	513	510	512	31	0	
9	0	0	0	0	0	515	510	509	31	0	
10	0	0	0	0	0	517	510	507	31	0	
11	0	0	0	0	0	513	509	513	32	0	
12	0	0	0	0	0	509	509	515	32	0	
13	0	0	0	0	0	513	510	510	32	0	
14	0	0	0	0	0	515	505	512	32	0	
15	0	0	0	0	0	514	509	512	32	0	
0	0	0	0	0	2	513	507	512	31	0	
1	0	0	0	0	0	512	506	514	32	0	
2	0	0	0	0	0	513	509	514	31	0	
3	0	0	0	0	0	512	508	512	31	0	
4	0	0	0	0	0	514	509	512	31	0	
5	0	0	0	0	0	512	512	511	31	0	
6	0	0	0	0	0	513	512	509	31	0	
7	0	0	0	0	0	512	511	511	31	0	
8	0	0	0	0	2	514	511	512	31	0	
9	0	0	0	0	0	515	506	512	32	0	
10	0	0	0	0	0	512	509	512	32	0	
11	0	0	0	0	0	514	510	511	32	0	
12	0	0	0	0	0	515	512	512	31	0	
13	0	0	0	0	0	514	508	509	31	0	
14	0	0	0	0	0	514	511	508	32	0	
15	0	0	0	0	0	515	508	509	31	0	
0	0	0	0	0	2	515	511	508	32	0	
1	0	0	0	0	0	516	511	508	32	0	
2	0	0	0	0	0	517	510	512	32	0	
3	0	0	0	0	0	514	510	514	32	0	
4	0	0	0	0	0	512	512	515	32	0	
5	0	0	0	0	0	511	510	513	31	0	
6	0	0	0	0	0	513	507	514	31	0	
7	0	0	0	0	0	516	508	508	31	0	
8	0	0	0	0	2	517	514	505	31	0	
9	0	0	0	0	0	516	509	505	31	0	
10	0	0	0	0	0	512	510	509	32	0	
11	0	0	0	0	0	511	507	510	32	0	
12	0	0	0	0	0	511	509	513	32	0	
13	0	0	0	0	0	512	508	513	32	0	
14	0	0	0	0	0	515	507	514	32	0	
15	0	0	0	0	0	511	509	514	32	0	
0	0	0	0	0	2	512	509	514	32	0	
1	0	0	0	0	0	513	511	516	31	0	
2	0	0	0	0	0	513	510	513	31	0	
3	0	0	0	0	0	513	510	511	32	0	
4	0	0	0	0	0	518	510	507	31	0	
5	0	0	0	0	0	518	513	507	31	0	
6	0	0	0	0	0	513	510	508	31	0	
7	0	0	0	0	0	514	508	510	31	0	
8	0	0	0	0	2	515	510	510	32	0	
9	0	0	0	0	0	513	509	512	32	0	
10	0	0	0	0	0	512	508	512	32	0	
11	0	0	0	0	0	513	509	512	32	0	
12	0	0	0	0	0	513	510	511	32	0	
13	0	0	0	0	0	512	509	510	32	0	
14	0	0	0	0	0	512	508	510	32	0	
15	0	0	0	0	0	513	508	513	32	0	
0	0	0	0	0	2	513	508	510	32	0	
1	0	0	0	0	0	513	510	512	31	0	
2	0	0	0	0	0	512	508	514	31	0	
3	0	0	0	0	0	514	511	511	31	0	
4	0	0	0	0	0	512	508	511	32	0	
5	0	0	0	0	0	513	510	511	32	0	
6	0	0	0	0	0	515	510	510	31	0	
7	0	0	0	0	0	514	510	513	32	0	
8	0	0	0	0	1	512	509	512	32	0	
9	0	0	0	0	0	513	508	511	32	0	
10	0	0	0	0	0	514	511	511	32	0	
11	0	0	0	0	0	515	508	514	32	0	
12	0	0	0	0	0	513	510	513	32	0	
13	0	0	0	0	0	513	510	511	31	0	
14	0	0	0	0	0	513	511	511	31	0	
15	0	0	0	0	0	514	511	509	31	0	
0	0	0	0	0	1	512	512	512	32	0	
1	0	0	0	0	0	513	512	510	31	0	
2	0	0	0	0	0	513	512	511	31	0	
3	0	0	0	0	0	515	508	509	32	0	
4	0	0	0	0	0	514	507	509	32	0	
5	0	0	0	0	0	513	508	512	32	0	
6	0	0	0	0	0	513	509	511	32	0	
7	0	0	0	0	0	515	509	511	31	0	
8	0	0	0	0	2	515	510	512	31	0	
9	0	0	0	0	0	515	508	512	31	0	
10	0	0	0	0	0	515	510	510	31	0	
11	0	0	0	0	0	515	509	512	31	0	
12	0	0	0	0	0	515	508	514	32	0	
13	0	0	0	0	0	515	509	512	32	0	
14	0	0	0	0	0	515	508	511	32	0	
15	0	0	0	0	0	516	512	509	31	0	
0	0	0	0	0	2	512	512	510	31	0	
1	0	0	0	0	0	511	508	511	31	0	
2	0	0	0	0	0	512	512	512	32	0	
3	0	0	0	0	0	514	508	513	32	0	
4	0	0	0	0	0	514	510	512	32	0	
5	0	0	0	0	0	515	508	510	32	0	
6	0	0	0	0	0	515	511	510	31	0	
7	0	0	0	0	0	512	507	510	32	0	
8	0	0	0	0	2	513	507	508	31	0	
9	0	0	0	0	0	516	507	510	32	0	
10	0	0	0	0	0	512	508	515	32	0	
11	0	0	0	0	0	508	510	513	32	0	
12	0	0	0	0	0	511	510	513	32	0	
13	0	0	0	0	0	512	510	512	31	0	
14	0	0	0	0	0	515	510	512	32	0	
15	0	0	0	0	0	515	513	510	32	0	
0	0	0	0	0	2	516	516	511	31	0	
1	0	0	0	0	0	515	510	510	32	0	
2	0	0	0	0	0	515	509	513	31	0	
3	0	0	0	0	0	514	512	512	31	0	
4	0	0	0	0	0	514	508	512	32	0	
5	0	0	0	0	0	514	508	512	32	0	
6	0	0	0	0	0	510	508	511	31	0	
7	0	0	0	0	0	512	509	511	32	0	
8	0	0	0	0	2	514	511	511	32	0	
9	0	0	0	0	0	514	510	511	32	0	
10	0	0	0	0	0	515	508	507	31	0	
11	0	0	0	0	0	512	508	510	31	0	
12	0	0	0	0	0	513	509	509	32	0	
13	0	0	0	0	0	514	505	511	32	0	
14	0	0	0	0	0	515	508	509	32	0	
15	0	0	0	0	0	513	508	511	32	0	
0	0	0	0	0	2	515	511	510	32	0	
1	0	0	0	0	0	515	510	510	31	0	
2	0	0	0	0	0	515	510	510	31	0	
3	0	0	0	0	0	513	510	509	32	0	
4	0	0	0	0	0	514	511	513	31	0	
5	0	0	0	0	0	512	511	512	31	0	
6	0	0	0	0	0	512	509	513	32	0	
7	0	0	0	0	0	514	509	513	32	0	
8	0	0	0	0	2	513	509	513	31	0	
9	0	0	0	0	0	514	510	512	31	0	
10	0	0	0	0	0	514	511	513	32	0	
11	0	0	0	0	0	515	508	513	32	0	
12	0	0	0	0	0	515	512	509	32	0	
13	0	0	0	0	0	516	510	506	31	0	
14	0	0	0	0	0	519	508	503	31	0	
15	0	0	0	0	0	516	511	508	31	0	
0	0	0	0	0	2	508	512	512	32	0	
1	0	0	0	0	0	511	510	514	32	0	
2	0	0	0	0	0	514	511	511	32	0	
3	0	0	0	0	0	515	509	508	31	0	
4	0	0	0	0	0	516	507	508	32	0	
5	0	0	0	0	0	513	508	506	32	0	
6	0	0	0	0	0	515	508	508	31	0	
7	0	0	0	0	0	513	511	511	31	0	
8	0	0	0	0	2	512	511	516	32	0	
9	0	0	0	0	0	508	508	515	32	0	
10	0	0	0	0	0	513	508	515	32	0	
11	0	0	0	0	0	513	510	513	31	0	
12	0	0	0	0	0	513	511	510	31	0	
13	0	0	0	0	0	515	510	512	31	0	
14	0	0	0	0	0	515	512	511	31	0	
15	0	0	0	0	0	514	510	510	32	0	
0	0	0	0	0	2	514	509	510	32	0	
1	0	0	0	0	0	515	510	510	31	0	
2	0	0	0	0	0	517	513	510	32	0	
3	0	0	0	0	0	517	510	507	32	0	
4	0	0	0	0	0	518	510	508	31	0	
5	0	0	0	0	0	515	511	508	31	0	
6	0	0	0	0	0	512	508	510	31	0	
7	0	0	0	0	0	513	511	514	32	0	
8	0	0	0	0	2	514	509	515	32	0	
9	0	0	0	0	0	511	511	516	32	0	
10	0	0	0	0	0	515	508	512	32	0	
11	0	0	0	0	0	512	507	510	31	0	
12	0	0	0	0	0	516	509	506	32	0	
13	0	0	0	0	0	516	511	508	31	0	
14	0	0	0	0	0	516	511	510	32	0	
15	0	0	0	0	0	516	513	512	32	0	
0	0	0	0	0	1	513	513	513	32	0	
1	0	0	0	0	0	515	508	511	32	0	
2	0	0	0	0	0	512	508	508	31	0	
3	0	0	0	0	0	513	512	508	31	0	
4	0	0	0	0	0	512	509	510	31	0	
5	0	0	0	0	0	510	509	513	32	0	
6	0	0	0	0	0	513	512	511	31	0	
7	0	0	0	0	0	515	510	513	32	0	
8	0	0	0	0	1	515	509	512	32	0	
9	0	0	0	0	0	515	507	510	32	0	
10	0	0	0	0	0	514	504	511	32	0	
11	0	0	0	0	0	510	508	514	32	0	
12	0	0	0	0	0	510	510	514	32	0	
13	0	0	0	0	0	514	508	513	32	0	
14	0	0	0	0	0	513	511	512	31	0	
15	0	0	0	0	0	515	513	510	31	0	
0	0	0	0	0	1	515	514	511	31	0	
1	0	0	0	0	0	513	508	512	32	0	
2	0	0	0	0	0	515	509	511	31	0	
3	0	0	0	0	0	517	510	510	32	0	
4	0	0	0	0	0	517	512	509	32	0	
5	0	0	0	0	0	515	508	510	32	0	
6	0	0	0	0	0	515	512	511	31	0	
7	0	0	0	0	0	512	511	511	31	0	
8	0	0	0	0	2	511	508	511	31	0	
9	0	0	0	0	0	510	507	511	31	0	
10	0	0	0	0	0	513	511	512	31	0	
11	0	0	0	0	0	513	512	512	32	0	
12	0	0	0	0	0	515	510	512	32	0	
13	0	0	0	0	0	514	512	510	31	0	
14	0	0	0	0	0	513	511	511	31	0	
15	0	0	0	0	0	512	511	512	32	0	
0	0	0	0	0	2	514	512	510	32	0	
1	0	0	0	0	0	514	510	507	32	0	
2	0	0	0	0	0	512	504	511	32	0	
3	0	0	0	0	0	514	508	514	31	0	
4	0	0	0	0	0	513	508	510	31	0	
5	0	0	0	0	0	511	508	512	32	0	
6	0	0	0	0	0	511	505	513	32	0	
7	0	0	0	0	0	515	509	511	32	0	
8	0	0	0	0	2	515	507	512	32	0	
9	0	0	0	0	0	515	509	512	32	0	
10	0	0	0	0	0	516	508	509	32	0	
11	0	0	0	0	0	516	509	511	32	0	
12	0	0	0	0	0	514	511	510	31	0	
13	0	0	0	0	0	518	510	507	32	0	
14	0	0	0	0	0	523	510	503	31	0	
15	0	0	0	0	0	516	515	509	31	0	
0	0	0	0	0	2	512	516	512	31	0	
1	0	0	0	0	0	508	512	515	31	0	
2	0	0	0	0	0	510	508	513	32	0	
3	0	0	0	0	0	509	506	514	32	0	
4	0	0	0	0	0	510	508	515	32	0	
5	0	0	0	0	0	509	511	515	32	0	
6	0	0	0	0	0	515	510	508	31	0	
7	0	0	0	0	0	516	510	510	31	0	
8	0	0	0	0	2	518	508	509	31	0	
9	0	0	0	0	0	517	507	513	32	0	
10	0	0	0	0	0	512	508	515	32	0	
11	0	0	0	0	0	517	512	510	32	0	
12	0	0	0	0	0	518	511	509	31	0	
13	0	0	0	0	0	514	509	509	31	0	
14	0	0	0	0	0	515	509	509	31	0	
15	0	0	0	0	0	515	509	512	32	0	
0	0	0	0	0	2	511	509	512	32	0	
1	0	0	0	0	0	512	510	509	32	0	
2	0	0	0	0	0	514	510	511	31	0	
3	0	0	0	0	0	514	512	510	31	0	
4	0	0	0	0	0	515	512	508	31	0	
5	0	0	0	0	0	516	511	511	31	0	
6	0	0	0	0	0	511	510	511	32	0	
7	0	0	0	0	0	509	511	514	32	0	
8	0	0	0	0	2	514	511	513	32	0	
9	0	0	0	0	0	514	511	513	32	0	
10	0	0	0	0	0	515	506	507	32	0	
11	0	0	0	0	0	516	505	508	32	0	
12	0	0	0	0	0	516	510	511	31	0	
13	0	0	0	0	0	515	511	512	31	0	
14	0	0	0	0	0	512	510	512	31	0	
15	0	0	0	0	0	514	511	512	31	0	
0	0	0	0	0	2	512	507	513	32	0	
1	0	0	0	0	0	515	511	514	32	0	
2	0	0	0	0	0	513	515	512	31	0	
3	0	0	0	0	0	515	512	511	32	0	
4	0	0	0	0	0	515	509	509	31	0	
5	0	0	0	0	0	518	511	510	31	0	
6	0	0	0	0	0	518	513	509	31	0	
7	0	0	0	0	0	515	509	509	31	0	
8	0	0	0	0	2	512	505	512	31	0	
9	0	0	0	0	0	512	513	513	31	0	
10	0	0	0	0	0	516	512	508	31	0	
11	0	0	0	0	0	517	512	506	31	0	
12	0	0	0	0	0	514	510	510	31	0	
13	0	0	0	0	0	510	505	513	32	0	
14	0	0	0	0	0	513	508	510	32	0	
15	0	0	0	0	0	516	507	508	32	0	
0	0	0	0	0	2	518	504	508	32	0	
1	0	0	0	0	0	515	510	508	31	0	
2	0	0	0	0	0	511	512	517	31	0	
3	0	0	0	0	0	512	510	515	32	0	
4	0	0	0	0	0	509	510	511	31	0	
5	0	0	0	0	0	510	506	512	32	0	
6	0	0	0	0	0	509	507	514	32	0	
7	0	0	0	0	0	511	508	515	32	0	
8	0	0	0	0	2	515	508	511	32	0	
9	0	0	0	0	0	513	508	512	32	0	
10	0	0	0	0	0	512	511	508	31	0	
11	0	0	0	0	0	514	514	511	31	0	
12	0	0	0	0	0	515	511	513	31	0	
13	0	0	0	0	0	516	510	510	32	0	
14	0	0	0	0	0	517	511	509	31	0	
15	0	0	0	0	0	513	510	514	31	0	
0	0	0	0	0	1	513	511	512	32	0	
1	0	0	0	0	0	514	508	512	32	0	
2	0	0	0	0	0	515	511	511	32	0	
3	0	0	0	0	0	514	513	510	31	0	
4	0	0	0	0	0	513	511	508	31	0	
5	0	0	0	0	0	513	508	513	31	0	
6	0	0	0	0	0	512	508	512	31	0	
7	0	0	0	0	0	513	509	508	32	0	
8	0	0	0	0	1	515	505	511	32	0	
9	0	0	0	0	0	515	509	511	32	0	
10	0	0	0	0	0	512	510	510	31	0	
11	0	0	0	0	0	513	511	510	31	0	
12	0	0	0	0	0	515	509	507	32	0	
13	0	0	0	0	0	516	507	509	32	0	
14	0	0	0	0	0	514	512	509	31	0	
15	0	0	0	0	0	514	510	509	32	0	
0	0	0	0	0	1	516	511	508	31	0	
1	0	0	0	0	0	512	510	512	31	0	
2	0	0	0	0	0	513	512	512	32	0	
3	0	0	0	0	0	514	508	511	32	0	
4	0	0	0	0	0	512	508	516	32	0	
5	0	0	0	0	0	511	508	515	32	0	
6	0	0	0	0	0	513	508	512	32	0	
7	0	0	0	0	0	513	506	512	31	0	
8	0	0	0	0	2	513	511	512	31	0	
9	0	0	0	0	0	512	511	513	32	0	
10	0	0	0	0	0	512	510	512	32	0	
11	0	0	0	0	0	513	512	511	32	0	
12	0	0	0	0	0	515	510	508	31	0	
13	0	0	0	0	0	517	508	506	32	0	
14	0	0	0	0	0	515	508	512	31	0	
15	0	0	0	0	0	516	511	515	31	0	
0	0	0	0	0	2	516	510	512	32	0	
1	0	0	0	0	0	512	507	512	32	0	
2	0	0	0	0	0	513	510	509	31	0	
3	0	0	0	0	0	511	512	513	31	0	
4	0	0	0	0	0	511	510	511	31	0	
5	0	0	0	0	0	512	508	511	32	0	
6	0	0	0	0	0	514	510	509	31	0	
7	0	0	0	0	0	510	512	510	32	0	
8	0	0	0	0	2	515	512	512	32	0	
9	0	0	0	0	0	513	511	509	32	0	
10	0	0	0	0	0	516	510	508	32	0	
11	0	0	0	0	0	515	507	512	32	0	
12	0	0	0	0	0	515	508	509	32	0	
13	0	0	0	0	0	516	511	509	32	0	
14	0	0	0	0	0	514	508	512	32	0	
15	0	0	0	0	0	512	512	513	32	0	
0	0	0	0	0	2	513	510	512	31	0	
1	0	0	0	0	0	512	511	512	31	0	
2	0	0	0	0	0	511	507	515	32	0	
3	0	0	0	0	0	514	507	511	32	0	
4	0	0	0	0	0	515	509	510	32	0	
5	0	0	0	0	0	513	510	513	31	0	
6	0	0	0	0	0	514	509	510	31	0	
7	0	0	0	0	0	514	513	510	31	0	
8	0	0	0	0	2	511	513	511	31	0	
9	0	0	0	0	0	514	507	512	31	0	
10	0	0	0	0	0	512	510	510	31	0	
11	0	0	0	0	0	514	512	507	31	0	
12	0	0	0	0	0	515	508	512	32	0	
13	0	0	0	0	0	513	509	514	32	0	
14	0	0	0	0	0	513	511	516	32	0	
15	0	0	0	0	0	513	508	513	32	0	
0	0	0	0	0	2	514	510	513	32	0	
1	0	0	0	0	0	516	510	511	32	0	
2	0	0	0	0	0	514	511	511	32	0	
3	0	0	0	0	0	515	510	509	32	0	
4	0	0	0	0	0	517	510	509	32	0	
5	0	0	0	0	0	513	510	514	32	0	
6	0	0	0	0	0	514	507	511	32	0	
7	0	0	0	0	0	515	507	511	32	0	
8	0	0	0	0	2	512	511	511	31	0	
9	0	0	0	0	0	514	511	513	31	0	
10	0	0	0	0	0	513	508	508	31	0	
11	0	0	0	0	0	512	507	507	31	0	
12	0	0	0	0	0	513	508	510	31	0	
13	0	0	0	0	0	512	508	509	31	0	
14	0	0	0	0	0	512	509	508	31	0	
15	0	0	0	0	0	512	508	508	31	0	
0	0	0	0	0	2	511	510	508	31	0	
1	0	0	0	0	0	514	508	506	31	0	
2	0	0	0	0	0	514	508	507	31	0	
3	0	0	0	0	0	516	510	507	31	0	
4	0	0	0	0	0	518	511	507	31	0	
5	0	0	0	0	0	513	511	511	31	0	
6	0	0	0	0	0	512	510	511	31	0	
7	0	0	0	0	0	513	509	514	31	0	
8	0	0	0	0	2	512	510	514	31	0	
9	0	0	0	0	0	514	510	512	31	0	
10	0	0	0	0	0	512	507	513	32	0	
11	0	0	0	0	0	515	509	511	31	0	
12	0	0	0	0	0	515	510	512	32	0	
13	0	0	0	0	0	517	512	509	32	0	
14	0	0	0	0	0	517	508	512	32	0	
15	0	0	0	0	0	515	509	512	32	0	
0	0	0	0	0	2	515	508	513	32	0	
1	0	0	0	0	0	513	510	514	32	0	
2	0	0	0	0	0	512	510	511	31	0	
3	0	0	0	0	0	513	509	509	32	0	
4	0	0	0	0	0	515	512	509	32	0	
5	0	0	0	0	0	513	511	514	32	0	
6	0	0	0	0	0	513	512	512	32	0	
7	0	0	0	0	0	512	510	514	31	0	
8	0	0	0	0	2	512	510	513	31	0	
9	0	0	0	0	0	512	510	512	31	0	
10	0	0	0	0	0	513	510	512	31	0	
11	0	0	0	0	0	512	508	511	32	0	
12	0	0	0	0	0	515	511	510	32	0	
13	0	0	0	0	0	514	512	510	31	0	
14	0	0	0	0	0	513	510	511	31	0	
15	0	0	0	0	0	513	510	510	32	0	
0	0	0	0	0	1	516	512	514	32	0	
1	0	0	0	0	0	516	508	511	32	0	
2	0	0	0	0	0	516	507	510	32	0	
3	0	0	0	0	0	515	510	511	32	0	
4	0	0	0	0	0	511	508	511	32	0	
5	0	0	0	0	0	513	510	513	32	0	
6	0	0	0	0	0	514	510	511	31	0	
7	0	0	0	0	0	515	513	509	32	0	
8	0	0	0	0	1	513	511	512	31	0	
9	0	0	0	0	0	513	510	510	31	0	
10	0	0	0	0	0	514	508	508	32	0	
11	0	0	0	0	0	515	510	513	32	0	
12	0	0	0	0	0	510	509	513	32	0	
13	0	0	0	0	0	513	511	510	31	0	
14	0	0	0	0	0	513	509	508	31	0	
15	0	0	0	0	0	512	512	510	31	0	
0	0	0	0	0	2	512	506	507	32	0	
1	0	0	0	0	0	514	505	514	32	0	
2	0	0	0	0	0	515	506	511	32	0	
3	0	0	0	0	0	515	508	514	32	0	
4	0	0	0	0	0	513	510	512	32	0	
5	0	0	0	0	0	513	511	511	32	0	
6	0	0	0	0	0	515	510	512	32	0	
7	0	0	0	0	0	513	509	511	31	0	
8	0	0	0	0	2	512	512	511	31	0	
9	0	0	0	0	0	513	511	513	31	0	
10	0	0	0	0	0	513	507	513	32	0	
11	0	0	0	0	0	512	510	513	32	0	
12	0	0	0	0	0	513	509	511	32	0	
13	0	0	0	0	0	514	509	512	31	0	
14	0	0	0	0	0	515	509	510	31	0	
15	0	0	0	0	0	513	509	511	32	0	
0	0	0	0	0	2	513	509	510	31	0	
1	0	0	0	0	0	516	511	511	32	0	
2	0	0	0	0	0	514	511	511	31	0	
3	0	0	0	0	0	515	509	513	32	0	
4	0	0	0	0	0	515	509	512	32	0	
5	0	0	0	0	0	514	511	511	32	0	
6	0	0	0	0	0	512	508	510	32	0	
7	0	0	0	0	0	515	513	509	31	0	
8	0	0	0	0	2	515	511	508	31	0	
9	0	0	0	0	0	515	508	509	31	0	
10	0	0	0	0	0	515	512	510	31	0	
11	0	0	0	0	0	513	509	510	32	0	
12	0	0	0	0	0	514	509	509	31	0	
13	0	0	0	0	0	513	509	511	32	0	
14	0	0	0	0	0	513	508	511	31	0	
15	0	0	0	0	0	513	510	510	32	0	
0	0	0	0	0	2	513	511	514	32	0	
1	0	0	0	0	0	514	509	512	32	0	
2	0	0	0	0	0	514	511	513	31	0	
3	0	0	0	0	0	517	507	511	31	0	
4	0	0	0	0	0	516	510	511	31	0	
5	0	0	0	0	0	512	510	512	32	0	
6	0	0	0	0	0	512	510	510	32	0	
7	0	0	0	0	0	514	508	510	31	0	
8	0	0	0	0	2	514	508	511	32	0	
9	0	0	0	0	0	514	510	510	31	0	
10	0	0	0	0	0	512	511	512	32	0	
11	0	0	0	0	0	513	508	512	32	0	
12	0	0	0	0	0	512	510	514	32	0	
13	0	0	0	0	0	514	510	511	32	0	
14	0	0	0	0	0	515	510	511	31	0	
15	0	0	0	0	0	516	511	511	31	0	
0	0	0	0	0	2	514	511	512	31	0	
1	0	0	0	0	0	515	509	510	31	0	
2	0	0	0	0	0	514	510	512	32	0	
3	0	0	0	0	0	514	511	512	31	0	
4	0	0	0	0	0	512	511	511	31	0	
5	0	0	0	0	0	512	508	511	32	0	
6	0	0	0	0	0	514	510	512	32	0	
7	0	0	0	0	0	513	511	512	32	0	
8	0	0	0	0	2	511	509	512	31	0	
9	0	0	0	0	0	513	508	511	31	0	
10	0	0	0	0	0	514	511	513	31	0	
11	0	0	0	0	0	514	507	512	31	0	
12	0	0	0	0	0	515	507	510	32	0	
13	0	0	0	0	0	515	509	511	31	0	
14	0	0	0	0	0	513	509	508	32	0	
15	0	0	0	0	0	513	509	509	32	0	
0	0	0	0	0	2	513	509	512	32	0	
1	0	0	0	0	0	515	512	511	32	0	
2	0	0	0	0	0	518	509	508	32	0	
3	0	0	0	0	0	514	509	510	32	0	
4	0	0	0	0	0	514	509	512	32	0	
5	0	0	0	0	0	513	510	510	31	0	
6	0	0	0	0	0	512	511	508	31	0	
7	0	0	0	0	0	514	512	510	31	0	
8	0	0	0	0	2	515	511	512	32	0	
9	0	0	0	0	0	512	510	513	32	0	
10	0	0	0	0	0	512	511	510	32	0	
11	0	0	0	0	0	514	510	509	31	0	
12	0	0	0	0	0	512	508	513	32	0	
13	0	0	0	0	0	512	508	515	32	0	
14	0	0	0	0	0	513	507	514	32	0	
15	0	0	0	0	0	514	507	510	31	0	
0	0	0	0	0	2	514	510	512	32	0	
1	0	0	0	0	0	513	507	510	31	0	
2	0	0	0	0	0	515	509	512	31	0	
3	0	0	0	0	0	513	510	508	31	0	
4	0	0	0	0	0	513	511	511	31	0	
5	0	0	0	0	0	512	509	511	31	0	
6	0	0	0	0	0	512	509	512	31	0	
7	0	0	0	0	0	513	510	509	31	0	
8	0	0	0	0	1	515	510	511	31	0	
9	0	0	0	0	0	514	511	513	32	0	
10	0	0	0	0	0	515	513	514	32	0	
11	0	0	0	0	0	513	510	512	32	0	
12	0	0	0	0	0	513	510	514	32	0	
13	0	0	0	0	0	515	509	511	31	0	
14	0	0	0	0	0	513	508	511	31	0	
15	0	0	0	0	0	513	507	512	31	0	
0	0	0	0	0	1	514	510	512	32	0	
1	0	0	0	0	0	513	510	510	32	0	
2	0	0	0	0	0	513	510	512	32	0	
3	0	0	0	0	0	513	512	512	32	0	
4	0	0	0	0	0	512	512	513	32	0	
5	0	0	0	0	0	515	506	513	32	0	
6	0	0	0	0	0	514	510	511	32	0	
7	0	0	0	0	0	514	510	510	31	0	
8	0	0	0	0	1	515	511	509	31	0	
9	0	0	0	0	0	514	511	509	31	0	
10	0	0	0	0	0	515	510	510	31	0	
11	0	0	0	0	0	516	508	511	31	0	
12	0	0	0	0	0	515	510	511	31	0	
13	0	0	0	0	0	513	513	509	31	0	
14	0	0	0	0	0	514	515	510	31	0	
15	0	0	0	0	0	512	500	510	31	0	
0	0	0	0	0	2	512	508	512	32	0	
1	0	0	0	0	0	515	511	511	31	0	
2	0	0	0	0	0	515	511	510	31	0	
3	0	0	0	0	0	512	509	511	31	0	
4	0	0	0	0	0	513	511	511	32	0	
5	0	0	0	0	0	513	512	511	32	0	
6	0	0	0	0	0	512	516	511	32	0	
7	0	0	0	0	0	517	509	510	31	0	
8	0	0	0	0	2	514	505	512	32	0	
9	0	0	0	0	0	511	507	512	31	0	
10	0	0	0	0	0	512	507	511	31	0	
11	0	0	0	0	0	514	510	512	32	0	
12	0	0	0	0	0	514	510	511	32	0	
13	0	0	0	0	0	514	511	513	32	0	
14	0	0	0	0	0	512	510	512	32	0	
15	0	0	0	0	0	513	509	509	32	0	
0	0	0	0	0	2	515	511	510	32	0	
1	0	0	0	0	0	514	512	510	32	0	
2	0	0	0	0	0	513	508	510	31	0	
3	0	0	0	0	0	514	507	510	31	0	
4	0	0	0	0	0	513	508	512	31	0	
5	0	0	0	0	0	511	508	512	32	0	
6	0	0	0	0	0	512	508	515	31	0	
7	0	0	0	0	0	516	510	512	31	0	
8	0	0	0	0	2	517	512	512	31	0	
9	0	0	0	0	0	515	508	513	32	0	
10	0	0	0	0	0	512	510	516	32	0	
11	0	0	0	0	0	515	512	511	32	0	
12	0	0	0	0	0	515	509	508	32	0	
13	0	0	0	0	0	514	508	506	32	0	
14	0	0	0	0	0	515	508	508	32	0	
15	0	0	0	0	0	513	509	508	31	0	
0	0	0	0	0	2	515	510	509	31	0	
1	0	0	0	0	0	514	510	509	31	0	
2	0	0	0	0	0	515	508	509	31	0	
3	0	0	0	0	0	516	510	511	31	0	
4	0	0	0	0	0	512	510	513	31	0	
5	0	0	0	0	0	513	511	514	32	0	
6	0	0	0	0	0	512	507	513	32	0	
7	0	0	0	0	0	514	507	511	32	0	
8	0	0	0	0	2	514	510	510	32	0	
9	0	0	0	0	0	514	513	511	32	0	
10	0	0	0	0	0	512	512	512	32	0	
11	0	0	0	0	0	512	510	512	31	0	
12	0	0	0	0	0	515	511	510	31	0	
13	0	0	0	0	0	515	508	509	31	0	
14	0	0	0	0	0	512	513	514	31	0	
15	0	0	0	0	0	515	511	512	31	0	
0	0	0	0	0	2	517	506	513	31	0	
1	0	0	0	0	0	515	508	511	32	0	
2	0	0	0	0	0	516	510	508	32	0	
3	0	0	0	0	0	515	511	505	32	0	
4	0	0	0	0	0	514	511	510	32	0	
5	0	0	0	0	0	511	508	513	32	0	
6	0	0	0	0	0	511	508	511	32	0	
7	0	0	0	0	0	512	507	508	32	0	
8	0	0	0	0	2	512	509	508	32	0	
9	0	0	0	0	0	512	510	511	32	0	
10	0	0	0	0	0	513	510	513	32	0	
11	0	0	0	0	0	512	509	517	32	0	
12	0	0	0	0	0	512	507	518	32	0	
13	0	0	0	0	0	512	510	514	31	0	
14	0	0	0	0	0	512	511	509	31	0	
15	0	0	0	0	0	515	505	508	31	0	
0	0	0	0	0	2	518	508	508	31	0	
1	0	0	0	0	0	517	508	514	32	0	
2	0	0	0	0	0	515	512	511	32	0	
3	0	0	0	0	0	514	512	512	31	0	
4	0	0	0	0	0	517	512	510	31	0	
5	0	0	0	0	0	517	513	502	31	0	
6	0	0	0	0	0	517	511	500	31	0	
7	0	0	0	0	0	515	510	504	31	0	
8	0	0	0	0	2	512	513	508	31	0	
9	0	0	0	0	0	509	513	511	31	0	
10	0	0	0	0	0	511	511	515	32	0	
11	0	0	0	0	0	512	511	518	32	0	
12	0	0	0	0	0	512	508	519	32	0	
13	0	0	0	0	0	512	505	516	32	0	
14	0	0	0	0	0	514	505	513	32	0	
15	0	0	0	0	0	514	510	509	32	0	
0	0	0	0	0	2	516	508	510	32	0	
1	0	0	0	0	0	511	506	514	32	0	
2	0	0	0	0	0	512	509	510	31	0	
3	0	0	0	0	0	513	509	510	31	0	
4	0	0	0	0	0	516	509	507	31	0	
5	0	0	0	0	0	513	510	505	31	0	
6	0	0	0	0	0	511	511	508	31	0	
7	0	0	0	0	0	510	509	515	31	0	
8	0	0	0	0	1	512	511	516	32	0	
9	0	0	0	0	0	512	510	519	32	0	
10	0	0	0	0	0	514	509	511	31	0	
11	0	0	0	0	0	518	510	505	31	0	
12	0	0	0	0	0	517	512	498	31	0	
13	0	0	0	0	0	518	510	504	32	0	
14	0	0	0	0	0	516	512	519	32	0	
15	0	0	0	0	0	514	513	526	32	0	
0	0	0	0	0	1	513	509	527	32	0	
1	0	0	0	0	0	510	506	514	31	0	
2	0	0	0	0	0	515	513	499	31	0	
3	0	0	0	0	0	516	515	501	31	0	
4	0	0	0	0	0	513	513	511	32	0	
5	0	0	0	0	0	511	502	518	33	0	
6	0	0	0	0	0	519	499	508	32	0	
7	0	0	0	0	0	519	508	505	32	0	
8	0	0	0	0	1	515	518	496	32	0	
9	0	0	0	0	0	517	514	509	32	0	
10	0	0	0	0	0	513	508	518	32	0	
11	0	0	0	0	0	507	512	512	32	0	
12	0	0	0	0	0	510	513	506	31	0	
13	0	0	0	0	0	509	511	511	31	0	
14	0	0	0	0	0	504	508	512	31	0	
15	0	0	0	0	0	505	508	506	31	0	
0	0	0	0	0	2	523	506	507	31	0	
1	0	0	0	0	0	518	501	523	32	0	
2	0	0	0	0	0	513	501	528	32	0	
3	0	0	0	0	0	512	504	522	31	0	
4	0	0	0	0	0	512	505	515	31	0	
5	0	0	0	0	0	517	509	515	32	0	
6	0	0	0	0	0	518	518	507	33	0	
7	0	0	0	0	0	525	524	491	32	0	
8	0	0	0	0	2	529	515	497	32	0	
9	0	0	0	0	0	512	507	526	32	0	
10	0	0	0	0	0	510	508	529	32	0	
11	0	0	0	0	0	513	511	520	31	0	
12	0	0	0	0	0	515	512	506	31	0	
13	0	0	0	0	0	514	507	499	31	0	
14	0	0	0	0	0	511	504	502	31	0	
15	0	0	0	0	0	513	510	503	31	0	
0	0	0	0	0	2	519	513	495	31	0	
1	0	0	0	0	0	516	513	506	31	0	
2	0	0	0	0	0	505	508	537	32	0	
3	0	0	0	0	0	501	511	538	32	0	
4	0	0	0	0	0	507	514	514	31	0	
5	0	0	0	0	0	510	506	500	32	0	
6	0	0	0	0	0	510	501	499	32	0	
7	0	0	0	0	0	512	510	498	32	0	
8	0	0	0	0	2	511	509	503	31	0	
9	0	0	0	0	0	512	510	505	31	0	
10	0	0	0	0	0	519	512	496	31	0	
11	0	0	0	0	0	519	511	496	31	0	
12	0	0	0	0	0	521	505	499	32	0	
13	0	0	0	0	0	521	508	521	33	0	
14	0	0	0	0	0	507	505	543	33	0	
15	0	0	0	0	0	504	502	550	33	0	
0	0	0	0	0	2	505	507	536	32	0	
1	0	0	0	0	0	510	506	510	31	0	
2	0	0	0	0	0	519	507	493	30	0	
3	0	0	0	0	0	519	512	514	31	0	
4	0	0	0	0	0	509	514	529	32	0	
5	0	0	0	0	0	513	513	530	32	0	
6	0	0	0	0	0	515	521	509	31	0	
7	0	0	0	0	0	511	514	508	32	0	
8	0	0	0	0	2	509	511	493	31	0	
9	0	0	0	0	0	516	514	489	31	0	
10	0	0	0	0	0	525	514	495	31	0	
11	0	0	0	0	0	524	507	513	32	0	
12	0	0	0	0	0	519	499	521	33	0	
13	0	0	0	0	0	514	505	507	31	0	
14	0	0	0	0	0	509	503	509	32	0	
15	0	0	0	0	0	508	503	519	32	0	
0	0	0	0	0	2	504	503	524	33	0	
1	0	0	0	0	0	500	504	533	32	0	
2	0	0	0	0	0	510	509	514	32	0	
3	0	0	0	0	0	516	512	512	31	0	
4	0	0	0	0	0	518	516	520	31	0	
5	0	0	0	0	0	515	517	514	31	0	
6	0	0	0	0	0	516	515	505	31	0	
7	0	0	0	0	0	515	512	507	31	0	
8	0	0	0	0	2	512	512	510	32	0	
9	0	0	0	0	0	514	508	505	31	0	
10	0	0	0	0	0	515	510	505	31	0	
11	0	0	0	0	0	517	513	508	31	0	
12	0	0	0	0	0	514	507	510	31	0	
13	0	0	0	0	0	514	508	508	31	0	
14	0	0	0	0	0	517	513	505	31	0	
15	0	0	0	0	0	520	512	501	31	0	
0	0	0	0	0	2	523	511	501	32	0	
1	0	0	0	0	0	519	510	506	32	0	
2	0	0	0	0	0	512	508	513	32	0	
3	0	0	0	0	0	511	508	513	32	0	
4	0	0	0	0	0	509	510	511	32	0	
5	0	0	0	0	0	511	511	504	31	0	
6	0	0	0	0	0	513	511	507	31	0	
7	0	0	0	0	0	512	507	516	32	0	
8	0	0	0	0	2	512	508	519	32	0	
9	0	0	0	0	0	510	508	512	32	0	
10	0	0	0	0	0	512	508	507	31	0	
11	0	0	0	0	0	515	508	504	31	0	
12	0	0	0	0	0	518	514	499	31	0	
13	0	0	0	0	0	524	513	492	31	0	
14	0	0	0	0	0	517	513	503	31	0	
15	0	0	0	0	0	515	510	510	32	0	
0	0	0	0	0	2	515	510	520	32	0	
1	0	0	0	0	0	515	509	515	32	0	
2	0	0	0	0	0	513	506	511	32	0	
3	0	0	0	0	0	504	504	529	32	0	
4	0	0	0	0	0	505	508	527	32	0	
5	0	0	0	0	0	511	510	513	31	0	
6	0	0	0	0	0	510	504	512	31	0	
7	0	0	0	0	0	508	509	513	31	0	
8	0	0	0	0	1	513	514	511	32	0	
9	0	0	0	0	0	519	508	506	32	0	
10	0	0	0	0	0	520	512	496	31	0	
11	0	0	0	0	0	518	509	499	31	0	
12	0	0	0	0	0	515	511	506	31	0	
13	0	0	0	0	0	519	513	492	31	0	
14	0	0	0	0	0	515	511	505	31	0	
15	0	0	0	0	0	512	509	519	32	0	
0	0	0	0	0	1	512	508	518	32	0	
1	0	0	0	0	0	512	510	512	31	0	
2	0	0	0	0	0	512	508	507	31	0	
3	0	0	0	0	0	515	512	504	31	0	
4	0	0	0	0	0	519	511	499	31	0	
5	0	0	0	0	0	515	513	512	31	0	
6	0	0	0	0	0	511	511	521	32	0	
7	0	0	0	0	0	513	512	512	31	0	
8	0	0	0	0	2	516	510	512	32	0	
9	0	0	0	0	0	513	509	513	32	0	
10	0	0	0	0	0	510	509	513	32	0	
11	0	0	0	0	0	514	508	511	31	0	
12	0	0	0	0	0	513	508	510	31	0	
13	0	0	0	0	0	515	509	510	31	0	
14	0	0	0	0	0	513	510	509	31	0	
15	0	0	0	0	0	514	511	513	32	0	
0	0	0	0	0	2	512	511	510	31	0	
1	0	0	0	0	0	513	510	511	32	0	
2	0	0	0	0	0	513	510	511	31	0	
3	0	0	0	0	0	514	508	509	32	0	
4	0	0	0	0	0	518	510	508	31	0	
5	0	0	0	0	0	514	509	507	31	0	
6	0	0	0	0	0	514	511	509	31	0	
7	0	0	0	0	0	516	511	509	31	0	
8	0	0	0	0	2	515	509	510	31	0	
9	0	0	0	0	0	515	509	510	31	0	
10	0	0	0	0	0	514	510	509	32	0	
11	0	0	0	0	0	513	508	513	32	0	
12	0	0	0	0	0	512	511	512	32	0	
13	0	0	0	0	0	515	512	510	32	0	
14	0	0	0	0	0	516	509	507	32	0	
15	0	0	0	0	0	514	508	509	32	0	
0	0	0	0	0	2	508	508	515	32	0	
1	0	0	0	0	0	514	508	513	32	0	
2	0	0	0	0	0	514	507	513	32	0	
3	0	0	0	0	0	511	506	511	31	0	
4	0	0	0	0	0	510	506	516	31	0	
5	0	0	0	0	0	513	510	512	31	0	
6	0	0	0	0	0	516	514	510	31	0	
7	0	0	0	0	0	514	507	514	31	0	
8	0	0	0	0	2	515	506	511	32	0	
9	0	0	0	0	0	515	509	509	32	0	
10	0	0	0	0	0	515	513	511	31	0	
11	0	0	0	0	0	515	512	515	32	0	
12	0	0	0	0	0	512	508	513	32	0	
13	0	0	0	0	0	512	509	512	32	0	
14	0	0	0	0	0	513	510	511	32	0	
15	0	0	0	0	0	514	512	511	31	0	
0	0	0	0	0	2	514	511	510	32	0	
1	0	0	0	0	0	514	512	512	31	0	
2	0	0	0	0	0	515	510	508	31	0	
3	0	0	0	0	0	517	509	508	31	0	
4	0	0	0	0	0	514	511	517	31	0	
5	0	0	0	0	0	513	508	515	32	0	
6	0	0	0	0	0	512	508	512	32	0	
7	0	0	0	0	0	514	510	513	31	0	
8	0	0	0	0	2	516	508	513	32	0	
9	0	0	0	0	0	513	508	510	31	0	
10	0	0	0	0	0	514	510	512	31	0	
11	0	0	0	0	0	514	512	510	31	0	
12	0	0	0	0	0	515	511	511	32	0	
13	0	0	0	0	0	513	513	512	32	0	
14	0	0	0	0	0	512	511	513	32	0	
15	0	0	0	0	0	515	509	511	32	0	
0	0	0	0	0	2	515	506	511	32	0	
1	0	0	0	0	0	514	507	513	32	0	
2	0	0	0	0	0	514	510	510	31	0	
3	0	0	0	0	0	513	510	512	31	0	
4	0	0	0	0	0	512	510	510	31	0	
5	0	0	0	0	0	514	508	511	31	0	
6	0	0	0	0	0	514	511	512	31	0	
7	0	0	0	0	0	514	510	512	31	0	
8	0	0	0	0	2	515	511	512	31	0	
9	0	0	0	0	0	513	510	512	31	0	
10	0	0	0	0	0	514	508	511	31	0	
11	0	0	0	0	0	511	509	511	32	0	
12	0	0	0	0	0	513	511	512	32	0	
13	0	0	0	0	0	515	510	512	32	0	
14	0	0	0	0	0	515	511	512	31	0	
15	0	0	0	0	0	516	510	512	32	0	
0	0	0	0	0	2	513	509	512	32	0	
1	0	0	0	0	0	513	510	512	31	0	
2	0	0	0	0	0	515	510	513	31	0	
3	0	0	0	0	0	513	509	512	32	0	
4	0	0	0	0	0	516	508	510	31	0	
5	0	0	0	0	0	512	509	511	31	0	
6	0	0	0	0	0	515	510	510	31	0	
7	0	0	0	0	0	515	512	508	31	0	
8	0	0	0	0	2	514	511	510	32	0	
9	0	0	0	0	0	515	510	510	32	0	
10	0	0	0	0	0	513	508	511	31	0	
11	0	0	0	0	0	512	508	513	31	0	
12	0	0	0	0	0	512	509	515	32	0	
13	0	0	0	0	0	510	510	515	32	0	
14	0	0	0	0	0	512	510	514	31	0	
15	0	0	0	0	0	515	510	512	32	0	
0	0	0	0	0	1	515	513	511	32	0	
1	0	0	0	0	0	517	509	509	32	0	
2	0	0	0	0	0	519	508	508	31	0	
3	0	0	0	0	0	518	506	509	31	0	
4	0	0	0	0	0	514	507	510	32	0	
5	0	0	0	0	0	513	509	511	32	0	
6	0	0	0	0	0	515	510	512	32	0	
7	0	0	0	0	0	512	510	511	31	0	
8	0	0	0	0	1	511	509	515	32	0	
9	0	0	0	0	0	511	510	514	32	0	
10	0	0	0	0	0	512	512	514	31	0	
11	0	0	0	0	0	514	512	516	32	0	
12	0	0	0	0	0	513	507	513	32	0	
13	0	0	0	0	0	516	508	512	31	0	
14	0	0	0	0	0	517	509	510	31	0	
15	0	0	0	0	0	518	510	511	32	0	
0	0	0	0	0	1	517	511	512	32	0	
1	0	0	0	0	0	515	513	513	32	0	
2	0	0	0	0	0	513	512	512	32	0	
3	0	0	0	0	0	512	510	514	32	0	
4	0	0	0	0	0	511	510	513	32	0	
5	0	0	0	0	0	514	509	512	32	0	
6	0	0	0	0	0	514	508	509	31	0	
7	0	0	0	0	0	514	508	510	31	0	
8	0	0	0	0	2	514	508	508	31	0	
9	0	0	0	0	0	512	504	512	32	0	
10	0	0	0	0	0	512	510	512	32	0	
11	0	0	0	0	0	512	510	515	32	0	
12	0	0	0	0	0	512	508	515	32	0	
13	0	0	0	0	0	509	507	517	32	0	
14	0	0	0	0	0	508	509	519	32	0	
15	0	0	0	0	0	511	510	517	32	0	
0	0	0	0	0	2	513	510	513	32	0	
1	0	0	0	0	0	518	513	512	32	0	
2	0	0	0	0	0	520	512	508	31	0	
3	0	0	0	0	0	521	512	507	31	0	
4	0	0	0	0	0	521	510	505	31	0	
5	0	0	0	0	0	518	511	508	31	0	
6	0	0	0	0	0	514	510	512	31	0	
7	0	0	0	0	0	511	504	513	31	0	
8	0	0	0	0	2	512	512	509	31	0	
9	0	0	0	0	0	512	512	509	31	0	
10	0	0	0	0	0	512	505	514	31	0	
11	0	0	0	0	0	514	511	511	32	0	
12	0	0	0	0	0	514	511	513	32	0	
13	0	0	0	0	0	513	511	517	32	0	
14	0	0	0	0	0	512	510	517	32	0	
15	0	0	0	0	0	512	510	514	32	0	
0	0	0	0	0	2	515	510	511	31	0	
1	0	0	0	0	0	515	511	511	32	0	
2	0	0	0	0	0	513	511	509	31	0	
3	0	0	0	0	0	512	511	509	31	0	
4	0	0	0	0	0	513	508	510	32	0	
5	0	0	0	0	0	513	508	509	32	0	
6	0	0	0	0	0	512	504	512	32	0	
7	0	0	0	0	0	512	508	513	32	0	
8	0	0	0	0	2	513	510	512	32	0	
9	0	0	0	0	0	515	510	514	32	0	
10	0	0	0	0	0	515	511	513	32	0	
11	0	0	0	0	0	512	509	515	32	0	
12	0	0	0	0	0	515	513	513	32	0	
13	0	0	0	0	0	515	512	512	31	0	
14	0	0	0	0	0	516	509	512	32	0	
15	0	0	0	0	0	515	508	513	31	0	
0	0	0	0	0	2	515	512	512	31	0	
1	0	0	0	0	0	513	521	510	31	0	
2	0	0	0	0	0	513	522	512	31	0	
3	0	0	0	0	0	511	501	516	32	0	
4	0	0	0	0	0	513	493	517	32	0	
5	0	0	0	0	0	512	507	512	32	0	
6	0	0	0	0	0	515	508	512	32	0	
7	0	0	0	0	0	516	508	511	31	0	
8	0	0	0	0	2	519	506	508	31	0	
9	0	0	0	0	0	515	509	506	31	0	
10	0	0	0	0	0	513	510	507	32	0	
11	0	0	0	0	0	513	508	510	31	0	
12	0	0	0	0	0	512	507	510	32	0	
13	0	0	0	0	0	512	509	511	31	0	
14	0	0	0	0	0	513	511	511	32	0	
15	0	0	0	0	0	512	512	511	32	0	
0	0	0	0	0	2	513	516	512	31	0	
1	0	0	0	0	0	512	511	512	31	0	
2	0	0	0	0	0	515	511	509	31	0	
3	0	0	0	0	0	517	516	510	31	0	
4	0	0	0	0	0	513	513	511	32	0	
5	0	0	0	0	0	511	507	514	32	0	
6	0	0	0	0	0	513	507	518	32	0	
7	0	0	0	0	0	512	511	516	32	0	
8	0	0	0	0	2	513	505	514	32	0	
9	0	0	0	0	0	510	507	512	32	0	
10	0	0	0	0	0	513	508	513	32	0	
11	0	0	0	0	0	513	510	507	31	0	
12	0	0	0	0	0	515	511	508	31	0	
13	0	0	0	0	0	515	508	508	32	0	
14	0	0	0	0	0	511	510	512	31	0	
15	0	0	0	0	0	510	510	513	31	0	
0	0	0	0	0	2	515	511	515	31	0	
1	0	0	0	0	0	517	510	510	31	0	
2	0	0	0	0	0	517	508	513	32	0	
3	0	0	0	0	0	516	508	510	32	0	
4	0	0	0	0	0	520	508	509	32	0	
5	0	0	0	0	0	519	510	509	32	0	
6	0	0	0	0	0	515	510	508	31	0	
7	0	0	0	0	0	514	509	509	31	0	
8	0	0	0	0	2	513	508	511	32	0	
9	0	0	0	0	0	512	505	510	32	0	
10	0	0	0	0	0	515	512	508	31	0	
11	0	0	0	0	0	515	512	512	32	0	
12	0	0	0	0	0	515	508	511	32	0	
13	0	0	0	0	0	512	507	511	32	0	
14	0	0	0	0	0	512	508	512	31	0	
15	0	0	0	0	0	515	510	513	31	0	
0	0	0	0	0	1	513	513	511	31	0	
1	0	0	0	0	0	514	511	512	31	0	
2	0	0	0	0	0	512	511	512	31	0	
3	0	0	0	0	0	515	511	512	32	0	
4	0	0	0	0	0	514	510	512	32	0	
5	0	0	0	0	0	512	511	512	32	0	
6	0	0	0	0	0	512	512	511	32	0	
7	0	0	0	0	0	513	513	511	31	0	
8	0	0	0	0	1	510	511	514	32	0	
9	0	0	0	0	0	512	507	519	32	0	
10	0	0	0	0	0	514	505	516	32	0	
11	0	0	0	0	0	516	508	511	32	0	
12	0	0	0	0	0	517	509	509	31	0	
13	0	0	0	0	0	518	512	508	31	0	
14	0	0	0	0	0	514	510	508	31	0	
15	0	0	0	0	0	513	508	507	31	0	
0	0	0	0	0	1	513	508	508	31	0	
1	0	0	0	0	0	514	509	509	31	0	
2	0	0	0	0	0	514	510	512	32	0	
3	0	0	0	0	0	512	506	512	32	0	
4	0	0	0	0	0	512	507	515	32	0	
5	0	0	0	0	0	512	509	513	32	0	
6	0	0	0	0	0	512	510	512	32	0	
7	0	0	0	0	0	513	511	512	32	0	
8	0	0	0	0	2	514	512	513	32	0	
9	0	0	0	0	0	513	510	507	31	0	
10	0	0	0	0	0	515	512	510	32	0	
11	0	0	0	0	0	515	513	510	31	0	
12	0	0	0	0	0	517	510	511	32	0	
13	0	0	0	0	0	516	512	509	31	0	
14	0	0	0	0	0	514	512	510	32	0	
15	0	0	0	0	0	513	509	509	32	0	
0	0	0	0	0	2	516	508	510	31	0	
1	0	0	0	0	0	512	508	511	31	0	
2	0	0	0	0	0	515	507	513	32	0	
3	0	0	0	0	0	513	508	511	32	0	
4	0	0	0	0	0	512	510	511	32	0	
5	0	0	0	0	0	514	510	513	31	0	
6	0	0	0	0	0	513	512	511	31	0	
7	0	0	0	0	0	513	508	513	32	0	
8	0	0	0	0	2	514	513	511	31	0	
9	0	0	0	0	0	516	515	511	31	0	
10	0	0	0	0	0	514	504	512	31	0	
11	0	0	0	0	0	516	505	511	31	0	
12	0	0	0	0	0	513	509	512	31	0	
13	0	0	0	0	0	515	511	510	31	0	
14	0	0	0	0	0	512	511	508	31	0	
15	0	0	0	0	0	515	511	511	32	0	
0	0	0	0	0	2	515	510	510	32	0	
1	0	0	0	0	0	513	508	508	31	0	
2	0	0	0	0	0	515	508	510	32	0	
3	0	0	0	0	0	511	508	511	32	0	
4	0	0	0	0	0	512	508	511	32	0	
5	0	0	0	0	0	511	509	511	32	0	
6	0	0	0	0	0	513	509	512	32	0	
7	0	0	0	0	0	514	509	512	31	0	
8	0	0	0	0	2	513	510	513	32	0	
9	0	0	0	0	0	515	511	510	31	0	
10	0	0	0	0	0	515	511	511	31	0	
11	0	0	0	0	0	515	514	510	31	0	
12	0	0	0	0	0	516	513	507	32	0	
13	0	0	0	0	0	513	509	508	32	0	
14	0	0	0	0	0	513	508	510	31	0	
15	0	0	0	0	0	518	510	510	31	0	
0	0	0	0	0	2	515	508	510	32	0	
1	0	0	0	0	0	513	505	511	32	0	
2	0	0	0	0	0	514	510	510	32	0	
3	0	0	0	0	0	515	510	510	32	0	
4	0	0	0	0	0	514	510	510	32	0	
5	0	0	0	0	0	513	511	511	31	0	
6	0	0	0	0	0	512	508	512	32	0	
7	0	0	0	0	0	512	510	512	32	0	
8	0	0	0	0	2	513	508	511	32	0	
9	0	0	0	0	0	511	510	514	32	0	
10	0	0	0	0	0	514	511	511	31	0	
11	0	0	0	0	0	514	508	512	31	0	
12	0	0	0	0	0	513	510	512	32	0	
13	0	0	0	0	0	510	512	511	31	0	
14	0	0	0	0	0	514	510	512	32	0	
15	0	0	0	0	0	513	513	510	31	0	
0	0	0	0	0	2	515	508	514	32	0	
1	0	0	0	0	0	513	507	514	31	0	
2	0	0	0	0	0	513	510	512	31	0	
3	0	0	0	0	0	514	511	513	31	0	
4	0	0	0	0	0	516	504	509	31	0	
5	0	0	0	0	0	515	509	511	31	0	
6	0	0	0	0	0	514	511	510	32	0	
7	0	0	0	0	0	514	511	510	32	0	
8	0	0	0	0	2	512	509	510	32	0	
9	0	0	0	0	0	515	508	509	32	0	
10	0	0	0	0	0	515	509	510	31	0	
11	0	0	0	0	0	515	511	509	31	0	
12	0	0	0	0	0	514	511	511	31	0	
13	0	0	0	0	0	516	515	510	31	0	
14	0	0	0	0	0	513	514	510	32	0	
15	0	0	0	0	0	512	504	511	32	0	
0	0	0	0	0	2	513	509	512	31	0	
1	0	0	0	0	0	512	510	514	32	0	
2	0	0	0	0	0	513	508	512	32	0	
3	0	0	0	0	0	513	510	511	31	0	
4	0	0	0	0	0	512	511	512	31	0	
5	0	0	0	0	0	513	510	509	31	0	
6	0	0	0	0	0	514	511	510	32	0	
7	0	0	0	0	0	514	510	511	31	0	
8	0	0	0	0	1	513	508	510	31	0	
9	0	0	0	0	0	515	508	511	32	0	
10	0	0	0	0	0	515	509	509	32	0	
11	0	0	0	0	0	516	511	510	32	0	
12	0	0	0	0	0	514	508	510	32	0	
13	0	0	0	0	0	515	507	511	32	0	
14	0	0	0	0	0	514	511	510	31	0	
15	0	0	0	0	0	515	510	511	32	0	
0	0	0	0	0	1	512	508	512	32	0	
1	0	0	0	0	0	513	512	513	31	0	
2	0	0	0	0	0	515	512	510	31	0	
3	0	0	0	0	0	513	510	512	31	0	
4	0	0	0	0	0	513	510	511	31	0	
5	0	0	0	0	0	512	508	512	31	0	
6	0	0	0	0	0	512	508	511	32	0	
7	0	0	0	0	0	513	510	510	32	0	
8	0	0	0	0	1	514	510	510	32	0	
9	0	0	0	0	0	514	509	511	32	0	
10	0	0	0	0	0	513	509	508	32	0	
11	0	0	0	0	0	515	510	510	32	0	
12	0	0	0	0	0	515	510	513	32	0	
13	0	0	0	0	0	510	508	511	32	0	
14	0	0	0	0	0	515	511	511	31	0	
15	0	0	0	0	0	515	511	511	32	0	
0	0	0	0	0	2	515	511	511	31	0	
1	0	0	0	0	0	516	510	512	31	0	
2	0	0	0	0	0	515	508	511	31	0	
3	0	0	0	0	0	513	508	512	32	0	
4	0	0	0	0	0	514	509	512	32	0	
5	0	0	0	0	0	515	509	511	32	0	
6	0	0	0	0	0	512	510	512	32	0	
7	0	0	0	0	0	513	510	511	32	0	
8	0	0	0	0	2	516	510	511	32	0	
9	0	0	0	0	0	513	508	509	31	0	
10	0	0	0	0	0	512	510	508	32	0	
11	0	0	0	0	0	515	510	512	31	0	
12	0	0	0	0	0	514	512	512	32	0	
13	0	0	0	0	0	514	512	511	31	0	
14	0	0	0	0	0	511	506	513	31	0	
15	0	0	0	0	0	515	511	512	32	0	
0	0	0	0	0	2	514	511	511	31	0	
1	0	0	0	0	0	514	511	512	31	0	
2	0	0	0	0	0	512	509	511	31	0	
3	0	0	0	0	0	512	510	510	31	0	
4	0	0	0	0	0	513	512	510	32	0	
5	0	0	0	0	0	515	511	512	31	0	
6	0	0	0	0	0	512	511	513	32	0	
7	0	0	0	0	0	513	509	511	31	0	
8	0	0	0	0	2	514	509	511	31	0	
9	0	0	0	0	0	513	510	512	31	0	
10	0	0	0	0	0	515	509	512	31	0	
11	0	0	0	0	0	514	509	512	32	0	
12	0	0	0	0	0	513	508	513	31	0	
13	0	0	0	0	0	515	510	512	32	0	
14	0	0	0	0	0	515	509	509	32	0	
15	0	0	0	0	0	511	508	512	31	0	
0	0	0	0	0	2	513	508	511	31	0	
1	0	0	0	0	0	515	509	511	32	0	
2	0	0	0	0	0	513	510	511	32	0	
3	0	0	0	0	0	512	513	511	31	0	
4	0	0	0	0	0	513	507	510	31	0	
5	0	0	0	0	0	514	511	510	32	0	
6	0	0	0	0	0	515	510	511	32	0	
7	0	0	0	0	0	515	510	511	32	0	
8	0	0	0	0	2	517	510	510	31	0	
9	0	0	0	0	0	515	511	511	32	0	
10	0	0	0	0	0	514	512	512	31	0	
11	0	0	0	0	0	514	510	512	31	0	
12	0	0	0	0	0	511	511	514	32	0	
13	0	0	0	0	0	513	510	512	32	0	
14	0	0	0	0	0	516	507	512	31	0	
15	0	0	0	0	0	514	509	510	31	0	
0	0	0	0	0	2	515	508	508	32	0	
1	0	0	0	0	0	515	509	509	32	0	
2	0	0	0	0	0	515	512	509	31	0	
3	0	0	0	0	0	514	512	509	31	0	
4	0	0	0	0	0	514	509	512	31	0	
5	0	0	0	0	0	513	509	512	32	0	
6	0	0	0	0	0	513	507	512	32	0	
7	0	0	0	0	0	514	508	511	32	0	
8	0	0	0	0	2	511	507	513	31	0	
9	0	0	0	0	0	515	506	512	32	0	
10	0	0	0	0	0	512	511	512	31	0	
11	0	0	0	0	0	514	513	513	31	0	
12	0	0	0	0	0	514	512	512	31	0	
13	0	0	0	0	0	510	510	513	31	0	
14	0	0	0	0	0	512	511	511	32	0	
15	0	0	0	0	0	515	508	513	32	0	
0	0	0	0	0	2	514	511	514	32	0	
1	0	0	0	0	0	513	510	514	32	0	
2	0	0	0	0	0	513	510	511	32	0	
3	0	0	0	0	0	512	508	510	32	0	
4	0	0	0	0	0	515	510	507	31	0	
5	0	0	0	0	0	512	511	509	32	0	
6	0	0	0	0	0	515	509	508	31	0	
7	0	0	0	0	0	514	508	508	31	0	
8	0	0	0	0	2	515	509	510	31	0	
9	0	0	0	0	0	513	510	510	31	0	
10	0	0	0	0	0	515	508	511	32	0	
11	0	0	0	0	0	513	508	510	32	0	
12	0	0	0	0	0	512	509	508	31	0	
13	0	0	0	0	0	513	511	508	32	0	
14	0	0	0	0	0	515	510	510	31	0	
15	0	0	0	0	0	514	510	512	32	0	
0	0	0	0	0	2	513	510	510	31	0	
1	0	0	0	0	0	514	508	512	32	0	
2	0	0	0	0	0	515	509	513	32	0	
3	0	0	0	0	0	514	510	513	32	0	
4	0	0	0	0	0	511	513	512	32	0	
5	0	0	0	0	0	515	511	511	32	0	
6	0	0	0	0	0	515	511	512	31	0	
7	0	0	0	0	0	515	511	509	31	0	
8	0	0	0	0	1	514	511	509	31	0	
9	0	0	0	0	0	514	506	512	32	0	
10	0	0	0	0	0	512	507	510	31	0	
11	0	0	0	0	0	513	510	510	31	0	
12	0	0	0	0	0	514	512	513	31	0	
13	0	0	0	0	0	514	512	512	32	0	
14	0	0	0	0	0	513	508	510	32	0	
15	0	0	0	0	0	512	510	511	32	0	
0	0	0	0	0	1	513	508	513	32	0	
1	0	0	0	0	0	512	506	513	32	0	
2	0	0	0	0	0	512	507	511	32	0	
3	0	0	0	0	0	513	509	513	32	0	
4	0	0	0	0	0	514	509	511	31	0	
5	0	0	0	0	0	515	510	511	32	0	
6	0	0	0	0	0	514	510	512	31	0	
7	0	0	0	0	0	514	509	510	31	0	
8	0	0	0	0	1	514	512	511	32	0	
9	0	0	0	0	0	513	510	512	32	0	
10	0	0	0	0	0	511	512	511	32	0	
11	0	0	0	0	0	513	511	512	31	0	
12	0	0	0	0	0	515	510	513	32	0	
13	0	0	0	0	0	516	510	514	32	0	
14	0	0	0	0	0	514	510	514	32	0	
15	0	0	0	0	0	514	508	513	32	0	
0	0	0	0	0	2	515	510	515	32	0	
1	0	0	0	0	0	515	512	511	32	0	
2	0	0	0	0	0	515	511	512	32	0	
3	0	0	0	0	0	515	510	512	32	0	
4	0	0	0	0	0	514	510	513	32	0	
5	0	0	0	0	0	515	509	511	32	0	
6	0	0	0	0	0	515	511	513	31	0	
7	0	0	0	0	0	514	508	510	32	0	
8	0	0	0	0	2	514	508	508	31	0	
9	0	0	0	0	0	512	507	506	31	0	
10	0	0	0	0	0	513	508	507	31	0	
11	0	0	0	0	0	513	507	505	31	0	
12	0	0	0	0	0	513	510	505	31	0	
13	0	0	0	0	0	515	508	507	31	0	
14	0	0	0	0	0	514	510	507	31	0	
15	0	0	0	0	0	512	509	507	31	0	
0	0	0	0	0	2	513	509	508	31	0	
1	0	0	0	0	0	512	507	508	31	0	
2	0	0	0	0	0	514	508	508	31	0	
3	0	0	0	0	0	514	509	512	31	0	
4	0	0	0	0	0	512	508	513	31	0	
5	0	0	0	0	0	513	510	516	32	0	
6	0	0	0	0	0	512	510	512	32	0	
7	0	0	0	0	0	515	509	513	32	0	
8	0	0	0	0	2	512	510	512	32	0	
9	0	0	0	0	0	515	513	511	32	0	
10	0	0	0	0	0	515	512	513	31	0	
11	0	0	0	0	0	512	510	511	31	0	
12	0	0	0	0	0	515	511	511	32	0	
13	0	0	0	0	0	515	509	513	32	0	
14	0	0	0	0	0	513	510	513	32	0	
15	0	0	0	0	0	513	510	511	32	0	
0	0	0	0	0	2	514	510	513	32	0	
1	0	0	0	0	0	514	511	513	32	0	
2	0	0	0	0	0	513	510	512	32	0	
3	0	0	0	0	0	513	512	511	32	0	
4	0	0	0	0	0	511	511	511	32	0	
5	0	0	0	0	0	515	509	512	32	0	
6	0	0	0	0	0	515	510	511	31	0	
7	0	0	0	0	0	512	510	511	32	0	
8	0	0	0	0	2	514	508	511	32	0	
9	0	0	0	0	0	511	509	511	31	0	
10	0	0	0	0	0	512	510	509	31	0	
11	0	0	0	0	0	513	509	509	31	0	
12	0	0	0	0	0	513	510	510	31	0	
13	0	0	0	0	0	514	509	510	32	0	
14	0	0	0	0	0	513	510	512	32	0	
15	0	0	0	0	0	512	509	512	32	0	
0	0	0	0	0	2	512	510	511	31	0	
1	0	0	0	0	0	514	510	513	31	0	
2	0	0	0	0	0	515	509	509	31	0	
3	0	0	0	0	0	514	510	510	31	0	
4	0	0	0	0	0	514	510	510	31	0	
5	0	0	0	0	0	514	510	512	32	0	
6	0	0	0	0	0	513	509	508	32	0	
7	0	0	0	0	0	516	510	508	32	0	
8	0	0	0	0	2	514	509	511	32	0	
9	0	0	0	0	0	515	512	511	32	0	
10	0	0	0	0	0	515	511	510	32	0	
11	0	0	0	0	0	512	509	512	31	0	
12	0	0	0	0	0	513	508	512	31	0	
13	0	0	0	0	0	514	510	510	32	0	
14	0	0	0	0	0	515	512	511	32	0	
15	0	0	0	0	0	514	509	513	32	0	
0	0	0	0	0	2	513	510	511	31	0	
1	0	0	0	0	0	515	508	511	32	0	
2	0	0	0	0	0	514	509	513	32	0	
3	0	0	0	0	0	515	512	510	32	0	
4	0	0	0	0	0	514	512	511	32	0	
5	0	0	0	0	0	510	509	513	31	0	
6	0	0	0	0	0	512	507	513	32	0	
7	0	0	0	0	0	512	507	513	32	0	
8	0	0	0	0	2	513	510	510	32	0	
9	0	0	0	0	0	515	510	509	31	0	
10	0	0	0	0	0	515	510	511	31	0	
11	0	0	0	0	0	513	511	508	31	0	
12	0	0	0	0	0	513	508	511	32	0	
13	0	0	0	0	0	513	509	511	32	0	
14	0	0	0	0	0	513	513	508	31	0	
15	0	0	0	0	0	514	513	512	31	0	
0	0	0	0	0	2	515	511	510	31	0	
1	0	0	0	0	0	515	509	511	31	0	
2	0	0	0	0	0	515	507	512	32	0	
3	0	0	0	0	0	513	508	512	32	0	
4	0	0	0	0	0	514	510	513	32	0	
5	0	0	0	0	0	513	510	513	32	0	
6	0	0	0	0	0	514	509	510	32	0	
7	0	0	0	0	0	515	511	509	32	0	
8	0	0	0	0	0	515	509	508	32	0	
9	0	0	0	0	0	515	509	508	31	0	
10	0	0	0	0	0	515	509	509	31	0	
11	0	0	0	0	0	516	511	512	32	0	
12	0	0	0	0	0	515	509	513	32	0	
13	0	0	0	0	0	513	509	512	32	0	
14	0	0	0	0	0	513	510	513	31	0	
15	0	0	0	0	0	510	509	511	32	0	
0	0	0	0	0	1	514	511	510	31	0	
1	0	0	0	0	0	514	510	509	31	0	
2	0	0	0	0	0	515	512	511	31	0	
3	0	0	0	0	0	514	512	512	31	0	
4	0	0	0	0	0	513	509	510	32	0	
5	0	0	0	0	0	512	510	512	32	0	
6	0	0	0	0	0	512	510	510	31	0	
7	0	0	0	0	0	516	509	512	32	0	
8	0	0	0	0	2	514	508	511	32	0	
9	0	0	0	0	0	514	509	513	32	0	
10	0	0	0	0	0	513	508	511	32	0	
11	0	0	0	0	0	513	511	512	31	0	
12	0	0	0	0	0	513	509	511	32	0	
13	0	0	0	0	0	511	509	511	32	0	
14	0	0	0	0	0	514	508	512	32	0	
15	0	0	0	0	0	515	508	512	32	0	
0	0	0	0	0	3	514	510	511	31	0	
1	0	0	0	0	0	515	509	511	31	0	
2	0	0	0	0	0	512	508	512	32	0	
3	0	0	0	0	0	511	510	512	32	0	
4	0	0	0	0	0	514	510	510	32	0	
5	0	0	0	0	0	515	509	509	32	0	
6	0	0	0	0	0	516	510	511	31	0	
7	0	0	0	0	0	515	508	511	31	0	
8	0	0	0	0	2	515	507	512	32	0	
9	0	0	0	0	0	515	511	511	31	0	
10	0	0	0	0	0	513	513	510	31	0	
11	0	0	0	0	0	512	511	511	31	0	
12	0	0	0	0	0	514	510	511	31	0	
13	0	0	0	0	0	515	510	508	31	0	
14	0	0	0	0	0	513	510	508	31	0	
15	0	0	0	0	0	513	508	511	32	0	
0	0	0	0	0	2	512	509	511	31	0	
1	0	0	0	0	0	514	510	510	32	0	
2	0	0	0	0	0	514	509	511	32	0	
3	0	0	0	0	0	513	512	512	32	0	
4	0	0	0	0	0	514	509	511	32	0	
5	0	0	0	0	0	513	508	511	32	0	
6	0	0	0	0	0	513	509	511	32	0	
7	0	0	0	0	0	513	508	510	31	0	
8	0	0	0	0	2	515	509	511	31	0	
9	0	0	0	0	0	513	508	511	32	0	
10	0	0	0	0	0	515	508	511	31	0	
11	0	0	0	0	0	516	509	512	32	0	
12	0	0	0	0	0	514	509	510	31	0	
13	0	0	0	0	0	510	511	510	31	0	
14	0	0	0	0	0	514	511	513	31	0	
15	0	0	0	0	0	514	513	510	31	0	
0	0	0	0	0	2	515	512	510	31	0	
1	0	0	0	0	0	513	512	512	32	0	
2	0	0	0	0	0	512	510	511	32	0	
3	0	0	0	0	0	512	511	512	32	0	
4	0	0	0	0	0	515	509	512	31	0	
5	0	0	0	0	0	513	510	511	32	0	
6	0	0	0	0	0	514	509	509	32	0	
7	0	0	0	0	0	515	508	514	32	0	
8	0	0	0	0	2	514	508	512	32	0	
9	0	0	0	0	0	514	508	510	32	0	
10	0	0	0	0	0	515	509	510	32	0	
11	0	0	0	0	0	514	509	510	32	0	
12	0	0	0	0	0	514	507	511	31	0	
13	0	0	0	0	0	512	507	512	32	0	
14	0	0	0	0	0	511	509	511	31	0	
15	0	0	0	0	0	515	509	510	31	0	
0	0	0	0	0	2	515	510	507	31	0	
1	0	0	0	0	0	516	511	508	31	0	
2	0	0	0	0	0	512	509	515	31	0	
3	0	0	0	0	0	513	508	513	32	0	
4	0	0	0	0	0	512	512	513	32	0	
5	0	0	0	0	0	513	511	511	31	0	
6	0	0	0	0	0	513	508	511	32	0	
7	0	0	0	0	0	514	509	511	32	0	
8	0	0	0	0	2	515	511	511	32	0	
9	0	0	0	0	0	514	512	513	32	0	
10	0	0	0	0	0	513	511	510	32	0	
11	0	0	0	0	0	516	511	511	32	0	
12	0	0	0	0	0	515	510	511	32	0	
13	0	0	0	0	0	515	511	513	31	0	
14	0	0	0	0	0	516	508	512	31	0	
15	0	0	0	0	0	516	509	510	32	0	
0	0	0	0	0	2	517	509	511	32	0	
1	0	0	0	0	0	513	509	512	31	0	
2	0	0	0	0	0	513	508	512	32	0	
3	0	0	0	0	0	512	509	511	31	0	
4	0	0	0	0	0	512	511	510	31	0	
5	0	0	0	0	0	514	509	512	32	0	
6	0	0	0	0	0	513	509	509	31	0	
7	0	0	0	0	0	515	508	511	32	0	
8	0	0	0	0	2	515	510	512	32	0	
9	0	0	0	0	0	514	510	513	32	0	
10	0	0	0	0	0	512	509	511	32	0	
11	0	0	0	0	0	515	509	512	31	0	
12	0	0	0	0	0	513	511	511	31	0	
13	0	0	0	0	0	513	509	511	31	0	
14	0	0	0	0	0	512	510	511	31	0	
15	0	0	0	0	0	514	510	511	32	0	
0	0	0	0	0	1	512	510	513	32	0	
1	0	0	0	0	0	514	507	511	32	0	
2	0	0	0	0	0	513	508	510	32	0	
3	0	0	0	0	0	513	509	508	31	0	
4	0	0	0	0	0	514	509	511	32	0	
5	0	0	0	0	0	513	508	512	32	0	
6	0	0	0	0	0	515	509	512	32	0	
7	0	0	0	0	0	516	509	511	32	0	
8	0	0	0	0	1	516	510	513	32	0	
9	0	0	0	0	0	515	509	512	32	0	
10	0	0	0	0	0	514	508	513	31	0	
11	0	0	0	0	0	514	510	512	31	0	
12	0	0	0	0	0	514	512	513	32	0	
13	0	0	0	0	0	511	511	511	32	0	
14	0	0	0	0	0	513	510	511	31	0	
15	0	0	0	0	0	512	512	509	32	0	
0	0	0	0	0	1	512	508	511	31	0	
1	0	0	0	0	0	514	510	510	32	0	
2	0	0	0	0	0	514	510	508	32	0	
3	0	0	0	0	0	515	511	508	32	0	
4	0	0	0	0	0	514	511	510	31	0	
5	0	0	0	0	0	514	512	510	32	0	
6	0	0	0	0	0	512	509	513	31	0	
7	0	0	0	0	0	512	510	513	31	0	
8	0	0	0	0	2	514	511	515	31	0	
9	0	0	0	0	0	515	509	512	32	0	
10	0	0	0	0	0	513	510	510	32	0	
11	0	0	0	0	0	515	509	509	32	0	
12	0	0	0	0	0	515	510	511	32	0	
13	0	0	0	0	0	513	508	512	32	0	
14	0	0	0	0	0	516	508	512	31	0	
15	0	0	0	0	0	516	509	511	31	0	
0	0	0	0	0	2	514	506	511	32	0	
1	0	0	0	0	0	511	508	512	32	0	
2	0	0	0	0	0	513	508	512	31	0	
3	0	0	0	0	0	514	511	510	32	0	
4	0	0	0	0	0	512	511	512	31	0	
5	0	0	0	0	0	512	511	513	31	0	
6	0	0	0	0	0	512	508	512	31	0	
7	0	0	0	0	0	512	509	510	32	0	
8	0	0	0	0	2	513	510	512	31	0	
9	0	0	0	0	0	514	511	511	31	0	
10	0	0	0	0	0	514	508	512	31	0	
11	0	0	0	0	0	514	508	514	31	0	
12	0	0	0	0	0	514	510	511	32	0	
13	0	0	0	0	0	513	512	510	32	0	
14	0	0	0	0	0	514	511	512	32	0	
15	0	0	0	0	0	513	510	512	32	0	
0	0	0	0	0	2	513	508	512	32	0	
1	0	0	0	0	0	514	508	510	32	0	
2	0	0	0	0	0	515	510	511	31	0	
3	0	0	0	0	0	514	512	509	31	0	
4	0	0	0	0	0	515	510	508	31	0	
5	0	0	0	0	0	515	510	509	32	0	
6	0	0	0	0	0	513	510	510	31	0	
7	0	0	0	0	0	512	510	511	32	0	
8	0	0	0	0	2	514	510	511	31	0	
9	0	0	0	0	0	514	509	507	31	0	
10	0	0	0	0	0	515	508	511	31	0	
11	0	0	0	0	0	515	510	512	31	0	
12	0	0	0	0	0	513	510	510	32	0	
13	0	0	0	0	0	513	510	512	32	0	
14	0	0	0	0	0	513	510	513	32	0	
15	0	0	0	0	0	515	509	511	32	0	
0	0	0	0	0	2	513	509	511	32	0	
1	0	0	0	0	0	514	507	511	32	0	
2	0	0	0	0	0	512	511	509	32	0	
3	0	0	0	0	0	511	510	512	32	0	
4	0	0	0	0	0	515	511	511	31	0	
5	0	0	0	0	0	514	510	512	32	0	
6	0	0	0	0	0	513	511	511	32	0	
7	0	0	0	0	0	513	511	511	31	0	
8	0	0	0	0	2	513	509	510	31	0	
9	0	0	0	0	0	515	508	510	31	0	
10	0	0	0	0	0	517	511	509	31	0	
11	0	0	0	0	0	515	511	508	32	0	
12	0	0	0	0	0	513	509	511	31	0	
13	0	0	0	0	0	511	509	512	32	0	
14	0	0	0	0	0	514	508	513	32	0	
15	0	0	0	0	0	513	511	513	32	0	
0	0	0	0	0	2	514	509	512	32	0	
1	0	0	0	0	0	513	510	510	31	0	
2	0	0	0	0	0	514	510	510	31	0	
3	0	0	0	0	0	512	510	510	32	0	
4	0	0	0	0	0	512	508	513	32	0	
5	0	0	0	0	0	513	509	511	31	0	
6	0	0	0	0	0	515	510	511	31	0	
7	0	0	0	0	0	515	511	510	31	0	
8	0	0	0	0	2	513	511	511	31	0	
9	0	0	0	0	0	517	508	512	32	0	
10	0	0	0	0	0	512	510	512	32	0	
11	0	0	0	0	0	515	511	513	31	0	
12	0	0	0	0	0	512	510	514	31	0	
13	0	0	0	0	0	515	509	512	31	0	
14	0	0	0	0	0	516	508	512	31	0	
15	0	0	0	0	0	515	509	508	32	0	
0	0	0	0	0	2	513	512	511	31	0	
1	0	0	0	0	0	515	510	509	31	0	
2	0	0	0	0	0	513	510	510	31	0	
3	0	0	0	0	0	513	508	510	32	0	
4	0	0	0	0	0	513	510	512	32	0	
5	0	0	0	0	0	514	510	511	32	0	
6	0	0	0	0	0	512	509	510	31	0	
7	0	0	0	0	0	512	511	509	31	0	
8	0	0	0	0	2	512	509	511	31	0	
9	0	0	0	0	0	511	509	512	32	0	
10	0	0	0	0	0	515	512	512	32	0	
11	0	0	0	0	0	514	508	512	32	0	
12	0	0	0	0	0	513	510	514	31	0	
13	0	0	0	0	0	515	510	511	31	0	
14	0	0	0	0	0	515	510	510	32	0	
15	0	0	0	0	0	513	508	513	32	0	
0	0	0	0	0	1	514	506	511	31	0	
1	0	0	0	0	0	513	509	511	32	0	
2	0	0	0	0	0	513	511	511	32	0	
3	0	0	0	0	0	514	512	513	32	0	
4	0	0	0	0	0	514	511	510	32	0	
5	0	0	0	0	0	515	511	507	31	0	
6	0	0	0	0	0	514	510	508	31	0	
7	0	0	0	0	0	515	508	510	32	0	
8	0	0	0	0	1	512	510	513	32	0	
9	0	0	0	0	0	512	508	510	31	0	
10	0	0	0	0	0	513	511	509	31	0	
11	0	0	0	0	0	513	508	510	31	0	
12	0	0	0	0	0	512	510	513	32	0	
13	0	0	0	0	0	512	508	514	32	0	
14	0	0	0	0	0	514	510	511	32	0	
15	0	0	0	0	0	516	508	512	32	0	
0	0	0	0	0	1	514	509	513	31	0	
1	0	0	0	0	0	512	512	512	31	0	
2	0	0	0	0	0	513	511	511	32	0	
3	0	0	0	0	0	513	510	511	32	0	
4	0	0	0	0	0	514	509	513	31	0	
5	0	0	0	0	0	514	508	511	32	0	
6	0	0	0	0	0	512	508	512	32	0	
7	0	0	0	0	0	514	508	511	32	0	
8	0	0	0	0	2	515	509	509	31	0	
9	0	0	0	0	0	514	510	512	32	0	
10	0	0	0	0	0	512	512	512	31	0	
11	0	0	0	0	0	514	510	511	31	0	
12	0	0	0	0	0	515	509	512	32	0	
13	0	0	0	0	0	513	510	512	32	0	
14	0	0	0	0	0	515	512	511	32	0	
15	0	0	0	0	0	514	510	509	32	0	
0	0	0	0	0	2	515	510	508	31	0	
1	0	0	0	0	0	514	508	511	31	0	
2	0	0	0	0	0	513	514	511	31	0	
3	0	0	0	0	0	513	510	513	31	0	
4	0	0	0	0	0	511	507	511	31	0	
5	0	0	0	0	0	515	511	511	31	0	
6	0	0	0	0	0	513	506	510	31	0	
7	0	0	0	0	0	513	509	509	31	0	
8	0	0	0	0	2	513	509	511	32	0	
9	0	0	0	0	0	511	508	514	32	0	
10	0	0	0	0	0	512	509	513	32	0	
11	0	0	0	0	0	514	509	511	31	0	
12	0	0	0	0	0	518	508	511	32	0	
13	0	0	0	0	0	517	510	511	32	0	
14	0	0	0	0	0	513	507	510	32	0	
15	0	0	0	0	0	514	511	510	32	0	
0	0	0	0	0	2	514	510	511	32	0	
1	0	0	0	0	0	516	512	509	32	0	
2	0	0	0	0	0	512	511	513	32	0	
3	0	0	0	0	0	512	511	511	32	0	
4	0	0	0	0	0	514	511	510	32	0	
5	0	0	0	0	0	513	509	512	31	0	
6	0	0	0	0	0	515	508	511	31	0	
7	0	0	0	0	0	512	509	515	32	0	
8	0	0	0	0	2	514	508	514	32	0	
9	0	0	0	0	0	513	508	512	31	0	
10	0	0	0	0	0	512	509	513	31	0	
11	0	0	0	0	0	515	510	514	31	0	
12	0	0	0	0	0	512	512	511	31	0	
13	0	0	0	0	0	514	512	509	31	0	
14	0	0	0	0	0	515	512	512	31	0	
15	0	0	0	0	0	516	511	509	31	0	
0	0	0	0	0	2	514	511	508	32	0	
1	0	0	0	0	0	515	510	510	32	0	
2	0	0	0	0	0	512	505	512	32	0	
3	0	0	0	0	0	513	509	511	31	0	
4	0	0	0	0	0	514	508	512	32	0	
5	0	0	0	0	0	515	510	512	32	0	
6	0	0	0	0	0	514	510	512	32	0	
7	0	0	0	0	0	515	509	510	31	0	
8	0	0	0	0	2	515	509	511	31	0	
9	0	0	0	0	0	514	509	510	32	0	
10	0	0	0	0	0	513	510	513	31	0	
11	0	0	0	0	0	516	510	512	31	0	
12	0	0	0	0	0	514	510	511	32	0	
13	0	0	0	0	0	514	509	512	32	0	
14	0	0	0	0	0	513	511	511	32	0	
15	0	0	0	0	0	512	509	510	31	0	
0	0	0	0	0	2	514	509	511	31	0	
1	0	0	0	0	0	511	509	508	32	0	
2	0	0	0	0	0	513	509	510	32	0	
3	0	0	0	0	0	513	507	512	32	0	
4	0	0	0	0	0	510	508	511	32	0	
5	0	0	0	0	0	513	510	512	31	0	
6	0	0	0	0	0	515	509	512	32	0	
7	0	0	0	0	0	513	510	515	31	0	
8	0	0	0	0	2	514	510	515	32	0	
9	0	0	0	0	0	515	511	512	32	0	
10	0	0	0	0	0	515	512	511	32	0	
11	0	0	0	0	0	517	512	511	32	0	
12	0	0	0	0	0	515	510	509	32	0	
13	0	0	0	0	0	515	509	508	31	0	
14	0	0	0	0	0	515	508	505	31	0	
15	0	0	0	0	0	515	508	507	32	0	
0	0	0	0	0	2	514	510	510	32	0	
1	0	0	0	0	0	513	509	515	31	0	
2	0	0	0	0	0	513	507	513	31	0	
3	0	0	0	0	0	512	509	515	32	0	
4	0	0	0	0	0	513	509	513	32	0	
5	0	0	0	0	0	513	510	514	32	0	
6	0	0	0	0	0	512	512	514	32	0	
7	0	0	0	0	0	513	510	515	32	0	
8	0	0	0	0	2	512	510	514	31	0	
9	0	0	0	0	0	512	510	513	31	0	
10	0	0	0	0	0	514	511	510	31	0	
11	0	0	0	0	0	514	508	510	31	0	
12	0	0	0	0	0	513	511	510	31	0	
13	0	0	0	0	0	512	512	510	31	0	
14	0	0	0	0	0	515	508	511	31	0	
15	0	0	0	0	0	514	510	511	32	0	
0	0	0	0	0	1	514	507	511	32	0	
1	0	0	0	0	0	515	507	508	32	0	
2	0	0	0	0	0	515	508	509	32	0	
3	0	0	0	0	0	515	508	508	31	0	
4	0	0	0	0	0	513	508	510	32	0	
5	0	0	0	0	0	515	511	511	32	0	
6	0	0	0	0	0	514	510	513	31	0	
7	0	0	0	0	0	515	510	509	31	0	
8	0	0	0	0	1	515	511	511	31	0	
9	0	0	0	0	0	513	512	512	31	0	
10	0	0	0	0	0	513	510	511	31	0	
11	0	0	0	0	0	512	510	512	32	0	
12	0	0	0	0	0	515	509	510	31	0	
13	0	0	0	0	0	518	510	510	31	0	
14	0	0	0	0	0	513	509	510	31	0	
15	0	0	0	0	0	511	509	512	32	0	
0	0	0	0	0	2	514	508	511	31	0	
1	0	0	0	0	0	513	510	512	32	0	
2	0	0	0	0	0	513	511	510	31	0	
3	0	0	0	0	0	513	510	512	32	0	
4	0	0	0	0	0	513	511	513	31	0	
5	0	0	0	0	0	513	507	513	32	0	
6	0	0	0	0	0	515	509	510	32	0	
7	0	0	0	0	0	515	510	512	31	0	
8	0	0	0	0	2	515	509	512	32	0	
9	0	0	0	0	0	513	509	511	32	0	
10	0	0	0	0	0	513	510	509	32	0	
11	0	0	0	0	0	512	508	511	32	0	
12	0	0	0	0	0	513	513	510	31	0	
13	0	0	0	0	0	516	508	511	31	0	
14	0	0	0	0	0	514	508	512	32	0	
15	0	0	0	0	0	515	511	511	32	0	
0	0	0	0	0	2	516	510	511	32	0	
1	0	0	0	0	0	514	510	508	32	0	
2	0	0	0	0	0	515	509	510	31	0	
3	0	0	0	0	0	515	510	512	32	0	
4	0	0	0	0	0	512	511	510	31	0	
5	0	0	0	0	0	513	510	510	31	0	
6	0	0	0	0	0	512	511	513	31	0	
7	0	0	0	0	0	512	507	512	31	0	
8	0	0	0	0	2	511	509	514	32	0	
9	0	0	0	0	0	513	510	514	32	0	
10	0	0	0	0	0	513	509	511	32	0	
11	0	0	0	0	0	514	509	512	31	0	
12	0	0	0	0	0	515	510	510	31	0	
13	0	0	0	0	0	515	511	507	31	0	
14	0	0	0	0	0	515	511	509	32	0	
15	0	0	0	0	0	513	508	511	31	0	
0	0	0	0	0	2	513	509	512	32	0	
1	0	0	0	0	0	511	508	513	32	0	
2	0	0	0	0	0	515	512	511	32	0	
3	0	0	0	0	0	513	512	510	32	0	
4	0	0	0	0	0	514	511	510	31	0	
5	0	0	0	0	0	512	509	512	32	0	
6	0	0	0	0	0	514	509	512	32	0	
7	0	0	0	0	0	513	510	511	32	0	
8	0	0	0	0	2	512	510	510	32	0	
9	0	0	0	0	0	514	510	512	31	0	
10	0	0	0	0	0	515	511	512	31	0	
11	0	0	0	0	0	515	510	512	31	0	
12	0	0	0	0	0	515	508	511	32	0	
13	0	0	0	0	0	515	508	513	32	0	
14	0	0	0	0	0	513	508	510	32	0	
15	0	0	0	0	0	514	508	510	31	0	
0	0	0	0	0	2	515	508	511	31	0	
1	0	0	0	0	0	514	508	513	31	0	
2	0	0	0	0	0	512	509	511	32	0	
3	0	0	0	0	0	513	509	512	32	0	
4	0	0	0	0	0	513	508	512	32	0	
5	0	0	0	0	0	512	509	513	32	0	
6	0	0	0	0	0	515	510	511	32	0	
7	0	0	0	0	0	515	510	509	32	0	
8	0	0	0	0	2	513	509	510	31	0	
9	0	0	0	0	0	515	509	511	31	0	
10	0	0	0	0	0	515	510	510	31	0	
11	0	0	0	0	0	513	509	508	31	0	
12	0	0	0	0	0	512	508	513	32	0	
13	0	0	0	0	0	513	510	513	32	0	
14	0	0	0	0	0	515	510	511	32	0	
15	0	0	0	0	0	515	510	514	32	0	
0	0	0	0	0	2	515	512	512	31	0	
1	0	0	0	0	0	515	510	510	31	0	
2	0	0	0	0	0	516	509	509	32	0	
3	0	0	0	0	0	513	508	508	31	0	
4	0	0	0	0	0	512	509	510	31	0	
5	0	0	0	0	0	516	507	510	32	0	
6	0	0	0	0	0	512	509	511	31	0	
7	0	0	0	0	0	513	511	512	31	0	
8	0	0	0	0	2	512	511	513	31	0	
9	0	0	0	0	0	513	511	513	31	0	
10	0	0	0	0	0	512	510	511	31	0	
11	0	0	0	0	0	513	506	512	32	0	
12	0	0	0	0	0	513	512	511	32	0	
13	0	0	0	0	0	513	508	510	32	0	
14	0	0	0	0	0	515	509	511	31	0	
15	0	0	0	0	0	513	510	513	31	0	
0	0	0	0	0	2	514	511	511	31	0	
1	0	0	0	0	0	515	511	511	31	0	
2	0	0	0	0	0	515	508	510	31	0	
3	0	0	0	0	0	516	511	510	31	0	
4	0	0	0	0	0	515	511	511	32	0	
5	0	0	0	0	0	512	511	510	32	0	
6	0	0	0	0	0	514	511	510	31	0	
7	0	0	0	0	0	513	510	512	31	0	
8	0	0	0	0	1	512	508	510	32	0	
9	0	0	0	0	0	512	509	513	32	0	
10	0	0	0	0	0	513	509	513	32	0	
11	0	0	0	0	0	513	508	515	31	0	
12	0	0	0	0	0	513	513	513	31	0	
13	0	0	0	0	0	513	510	510	31	0	
14	0	0	0	0	0	513	508	512	31	0	
15	0	0	0	0	0	515	505	511	31	0	
0	0	0	0	0	0	515	510	511	31	0	
1	0	0	0	0	0	513	508	509	31	0	
2	0	0	0	0	0	515	508	511	32	0	
3	0	0	0	0	0	515	510	510	32	0	
4	0	0	0	0	0	515	509	511	31	0	
5	0	0	0	0	0	513	510	509	32	0	
6	0	0	0	0	0	512	511	513	32	0	
7	0	0	0	0	0	515	510	509	31	0	
8	0	0	0	0	1	515	509	512	32	0	
9	0	0	0	0	0	516	510	510	32	0	
10	0	0	0	0	0	515	511	512	31	0	
11	0	0	0	0	0	513	509	511	32	0	
12	0	0	0	0	0	512	508	511	31	0	
13	0	0	0	0	0	512	510	512	31	0	
14	0	0	0	0	0	513	510	510	31	0	
15	0	0	0	0	0	513	512	511	31	0	
0	0	0	0	0	2	513	512	513	31	0	
1	0	0	0	0	0	510	511	514	31	0	
2	0	0	0	0	0	512	508	513	32	0	
3	0	0	0	0	0	510	509	511	32	0	
4	0	0	0	0	0	512	508	512	32	0	
5	0	0	0	0	0	514	508	511	32	0	
6	0	0	0	0	0	513	507	510	31	0	
7	0	0	0	0	0	514	509	512	31	0	
8	0	0	0	0	2	515	512	512	31	0	
9	0	0	0	0	0	512	510	509	32	0	
10	0	0	0	0	0	512	510	510	32	0	
11	0	0	0	0	0	512	509	513	31	0	
12	0	0	0	0	0	515	509	512	32	0	
13	0	0	0	0	0	515	507	511	32	0	
14	0	0	0	0	0	514	509	508	31	0	
15	0	0	0	0	0	513	510	510	31	0	
0	0	0	0	0	2	516	512	510	31	0	
1	0	0	0	0	0	517	509	513	31	0	
2	0	0	0	0	0	514	508	513	31	0	
3	0	0	0	0	0	515	507	511	32	0	
4	0	0	0	0	0	516	508	511	31	0	
5	0	0	0	0	0	516	511	510	32	0	
6	0	0	0	0	0	514	511	508	32	0	
7	0	0	0	0	0	512	511	510	32	0	
8	0	0	0	0	2	512	509	513	31	0	
9	0	0	0	0	0	511	510	512	31	0	
10	0	0	0	0	0	511	510	512	31	0	
11	0	0	0	0	0	513	512	511	31	0	
12	0	0	0	0	0	515	509	509	32	0	
13	0	0	0	0	0	516	511	509	32	0	
14	0	0	0	0	0	517	508	510	31	0	
15	0	0	0	0	0	514	510	509	32	0	
0	0	0	0	0	2	513	510	510	32	0	
1	0	0	0	0	0	511	508	509	32	0	
2	0	0	0	0	0	513	508	512	32	0	
3	0	0	0	0	0	515	509	513	32	0	
4	0	0	0	0	0	514	511	513	31	0	
5	0	0	0	0	0	513	511	512	31	0	
6	0	0	0	0	0	512	511	513	31	0	
7	0	0	0	0	0	512	509	512	32	0	
8	0	0	0	0	2	513	509	512	32	0	
9	0	0	0	0	0	512	508	511	32	0	
10	0	0	0	0	0	511	509	513	32	0	
11	0	0	0	0	0	513	510	512	32	0	
12	0	0	0	0	0	514	510	513	32	0	
13	0	0	0	0	0	515	511	511	31	0	
14	0	0	0	0	0	513	511	511	32	0	
15	0	0	0	0	0	515	512	508	32	0	
0	0	0	0	0	2	513	512	509	31	0	
1	0	0	0	0	0	515	508	510	32	0	
2	0	0	0	0	0	513	508	511	32	0	
3	0	0	0	0	0	512	509	510	31	0	
4	0	0	0	0	0	513	508	512	31	0	
5	0	0	0	0	0	514	509	511	32	0	
6	0	0	0	0	0	513	511	512	31	0	
7	0	0	0	0	0	514	510	512	32	0	
8	0	0	0	0	2	514	508	512	32	0	
9	0	0	0	0	0	513	510	509	32	0	
10	0	0	0	0	0	511	510	512	32	0	
11	0	0	0	0	0	512	508	511	31	0	
12	0	0	0	0	0	513	508	511	32	0	
13	0	0	0	0	0	514	508	512	32	0	
14	0	0	0	0	0	515	511	511	31	0	
15	0	0	0	0	0	516	513	509	31	0	
0	0	0	0	0	2	514	508	511	31	0	
1	0	0	0	0	0	514	510	512	32	0	
2	0	0	0	0	0	513	510	513	32	0	
3	0	0	0	0	0	515	509	513	31	0	
4	0	0	0	0	0	513	508	510	31	0	
5	0	0	0	0	0	514	510	511	31	0	
6	0	0	0	0	0	514	511	513	31	0	
7	0	0	0	0	0	516	512	510	31	0	
8	0	0	0	0	2	515	512	509	31	0	
9	0	0	0	0	0	512	511	511	32	0	
10	0	0	0	0	0	512	511	511	32	0	
11	0	0	0	0	0	513	510	512	32	0	
12	0	0	0	0	0	513	507	511	32	0	
13	0	0	0	0	0	512	507	511	32	0	
14	0	0	0	0	0	514	508	509	32	0	
15	0	0	0	0	0	514	508	512	32	0	
0	0	0	0	0	2	513	510	510	31	0	
1	0	0	0	0	0	513	509	512	32	0	
2	0	0	0	0	0	514	509	512	32	0	
3	0	0	0	0	0	512	511	511	31	0	
4	0	0	0	0	0	514	511	510	31	0	
5	0	0	0	0	0	514	510	511	31	0	
6	0	0	0	0	0	515	508	509	31	0	
7	0	0	0	0	0	515	511	512	32	0	
8	0	0	0	0	1	515	510	511	31	0	
9	0	0	0	0	0	516	510	511	31	0	
10	0	0	0	0	0	514	511	509	32	0	
11	0	0	0	0	0	512	510	508	32	0	
12	0	0	0	0	0	515	511	512	31	0	
13	0	0	0	0	0	512	509	512	32	0	
14	0	0	0	0	0	511	509	513	32	0	
15	0	0	0	0	0	514	508	511	31	0	
0	0	0	0	0	1	515	511	509	32	0	
1	0	0	0	0	0	514	511	510	32	0	
2	0	0	0	0	0	514	510	510	32	0	
3	0	0	0	0	0	514	508	513	32	0	
4	0	0	0	0	0	513	510	511	32	0	
5	0	0	0	0	0	515	511	512	31	0	
6	0	0	0	0	0	515	510	513	31	0	
7	0	0	0	0	0	512	510	514	32	0	
8	0	0	0	0	1	513	511	513	31	0	
9	0	0	0	0	0	512	510	511	31	0	
10	0	0	0	0	0	513	510	511	32	0	
11	0	0	0	0	0	514	510	511	32	0	
12	0	0	0	0	0	514	508	511	32	0	
13	0	0	0	0	0	513	510	510	31	0	
14	0	0	0	0	0	515	512	510	31	0	
15	0	0	0	0	0	513	510	510	31	0	
0	0	0	0	0	2	512	508	511	32	0	
1	0	0	0	0	0	515	509	511	31	0	
2	0	0	0	0	0	515	511	510	32	0	
3	0	0	0	0	0	514	507	511	32	0	
4	0	0	0	0	0	514	510	509	32	0	
5	0	0	0	0	0	515	510	512	32	0	
6	0	0	0	0	0	515	509	511	31	0	
7	0	0	0	0	0	514	510	511	31	0	
8	0	0	0	0	2	512	509	512	32	0	
9	0	0	0	0	0	515	508	513	32	0	
10	0	0	0	0	0	513	511	511	32	0	
11	0	0	0	0	0	513	508	508	31	0	
12	0	0	0	0	0	514	509	508	31	0	
13	0	0	0	0	0	513	510	508	32	0	
14	0	0	0	0	0	510	509	512	32	0	
15	0	0	0	0	0	512	508	513	31	0	
0	0	0	0	0	2	513	508	512	31	0	
1	0	0	0	0	0	514	508	510	32	0	
2	0	0	0	0	0	515	511	511	31	0	
3	0	0	0	0	0	517	509	510	32	0	
4	0	0	0	0	0	512	508	511	32	0	
5	0	0	0	0	0	510	510	512	32	0	
6	0	0	0	0	0	512	510	515	32	0	
7	0	0	0	0	0	515	509	512	31	0	
8	0	0	0	0	2	517	507	512	31	0	
9	0	0	0	0	0	515	509	512	31	0	
10	0	0	0	0	0	515	509	511	32	0	
11	0	0	0	0	0	513	510	513	32	0	
12	0	0	0	0	0	512	510	512	32	0	
13	0	0	0	0	0	513	510	513	32	0	
14	0	0	0	0	0	513	508	512	32	0	
15	0	0	0	0	0	515	508	511	32	0	
0	0	0	0	0	2	514	511	510	32	0	
1	0	0	0	0	0	515	512	510	32	0	
2	0	0	0	0	0	514	512	510	32	0	
3	0	0	0	0	0	515	510	510	32	0	
4	0	0	0	0	0	515	510	510	31	0	
5	0	0	0	0	0	515	511	511	31	0	
6	0	0	0	0	0	517	510	510	31	0	
7	0	0	0	0	0	515	510	511	32	0	
8	0	0	0	0	2	514	509	511	31	0	
9	0	0	0	0	0	512	511	510	32	0	
10	0	0	0	0	0	512	509	511	32	0	
11	0	0	0	0	0	511	508	515	32	0	
12	0	0	0	0	0	513	508	510	31	0	
13	0	0	0	0	0	515	509	513	32	0	
14	0	0	0	0	0	515	509	511	31	0	
15	0	0	0	0	0	514	508	513	31	0	
0	0	0	0	0	2	513	511	512	31	0	
1	0	0	0	0	0	512	509	512	31	0	
2	0	0	0	0	0	511	508	512	31	0	
3	0	0	0	0	0	512	509	510	31	0	
4	0	0	0	0	0	514	510	512	32	0	
5	0	0	0	0	0	514	509	511	32	0	
6	0	0	0	0	0	514	509	509	32	0	
7	0	0	0	0	0	513	511	511	32	0	
8	0	0	0	0	2	513	511	511	32	0	
9	0	0	0	0	0	512	510	513	32	0	
10	0	0	0	0	0	515	511	511	31	0	
11	0	0	0	0	0	515	512	512	31	0	
12	0	0	0	0	0	512	510	512	32	0	
13	0	0	0	0	0	512	510	512	31	0	
14	0	0	0	0	0	513	509	510	31	0	
15	0	0	0	0	0	515	511	510	32	0	
0	0	0	0	0	2	515	509	511	31	0	
1	0	0	0	0	0	515	512	512	32	0	
2	0	0	0	0	0	516	510	509	32	0	
3	0	0	0	0	0	514	510	511	32	0	
4	0	0	0	0	0	513	507	513	32	0	
5	0	0	0	0	0	515	508	511	32	0	
6	0	0	0	0	0	513	507	511	31	0	
7	0	0	0	0	0	512	507	512	32	0	
8	0	0	0	0	2	512	508	511	31	0	
9	0	0	0	0	0	515	510	511	31	0	
10	0	0	0	0	0	513	509	510	32	0	
11	0	0	0	0	0	514	509	511	32	0	
12	0	0	0	0	0	514	510	513	32	0	
13	0	0	0	0	0	513	511	512	32	0	
14	0	0	0	0	0	515	509	510	31	0	
15	0	0	0	0	0	513	510	511	32	0	
0	0	0	0	0	2	516	511	510	31	0	
1	0	0	0	0	0	515	512	511	31	0	
2	0	0	0	0	0	515	511	512	31	0	
3	0	0	0	0	0	513	510	511	31	0	
4	0	0	0	0	0	513	509	512	32	0	
5	0	0	0	0	0	514	509	511	32	0	
6	0	0	0	0	0	512	510	511	31	0	
7	0	0	0	0	0	512	510	512	31	0	
8	0	0	0	0	1	514	511	511	31	0	
9	0	0	0	0	0	515	509	511	32	0	
10	0	0	0	0	0	515	510	511	32	0	
11	0	0	0	0	0	513	509	512	32	0	
12	0	0	0	0	0	515	509	512	32	0	
13	0	0	0	0	0	514	509	510	32	0	
14	0	0	0	0	0	515	510	512	32	0	
15	0	0	0	0	0	515	509	510	32	0	
0	0	0	0	0	1	513	509	512	32	0	
1	0	0	0	0	0	514	510	512	31	0	
2	0	0	0	0	0	515	509	510	31	0	
3	0	0	0	0	0	512	509	513	31	0	
4	0	0	0	0	0	511	509	513	31	0	
5	0	0	0	0	0	512	510	512	32	0	
6	0	0	0	0	0	512	512	512	31	0	
7	0	0	0	0	0	513	509	509	32	0	
8	0	0	0	0	2	513	510	509	31	0	
9	0	0	0	0	0	511	507	511	31	0	
10	0	0	0	0	0	512	508	511	31	0	
11	0	0	0	0	0	516	509	511	31	0	
12	0	0	0	0	0	513	509	512	32	0	
13	0	0	0	0	0	515	510	512	32	0	
14	0	0	0	0	0	516	510	512	32	0	
15	0	0	0	0	0	516	509	511	32	0	
0	0	0	0	0	2	514	511	510	31	0	
1	0	0	0	0	0	513	510	512	31	0	
2	0	0	0	0	0	514	511	511	31	0	
3	0	0	0	0	0	513	511	512	32	0	
4	0	0	0	0	0	514	511	512	32	0	
5	0	0	0	0	0	514	509	513	32	0	
6	0	0	0	0	0	515	511	513	32	0	
7	0	0	0	0	0	515	508	513	32	0	
8	0	0	0	0	2	515	509	512	32	0	
9	0	0	0	0	0	512	508	512	32	0	
10	0	0	0	0	0	513	511	510	31	0	
11	0	0	0	0	0	515	511	510	32	0	
12	0	0	0	0	0	513	509	508	32	0	
13	0	0	0	0	0	512	510	509	31	0	
14	0	0	0	0	0	513	509	509	31	0	
15	0	0	0	0	0	514	508	508	31	0	
0	0	0	0	0	2	513	508	508	31	0	
1	0	0	0	0	0	512	507	509	31	0	
2	0	0	0	0	0	514	506	511	31	0	
3	0	0	0	0	0	514	507	506	31	0	
4	0	0	0	0	0	513	507	507	31	0	
5	0	0	0	0	0	512	509	505	31	0	
6	0	0	0	0	0	512	510	508	31	0	
7	0	0	0	0	0	512	509	510	31	0	
8	0	0	0	0	2	512	512	508	31	0	
9	0	0	0	0	0	514	509	509	31	0	
10	0	0	0	0	0	511	511	511	31	0	
11	0	0	0	0	0	512	512	511	31	0	
12	0	0	0	0	0	512	510	511	31	0	
13	0	0	0	0	0	515	512	512	31	0	
14	0	0	0	0	0	515	511	511	32	0	
15	0	0	0	0	0	517	511	513	32	0	
0	0	0	0	0	2	515	511	516	32	0	
1	0	0	0	0	0	514	511	514	32	0	
2	0	0	0	0	0	515	510	513	32	0	
3	0	0	0	0	0	515	508	514	32	0	
4	0	0	0	0	0	515	510	515	32	0	
5	0	0	0	0	0	515	509	513	32	0	
6	0	0	0	0	0	513	511	513	32	0	
7	0	0	0	0	0	514	510	511	32	0	
8	0	0	0	0	2	513	509	512	32	0	
9	0	0	0	0	0	513	512	513	32	0	
10	0	0	0	0	0	514	510	513	31	0	
11	0	0	0	0	0	513	509	513	31	0	
12	0	0	0	0	0	516	508	512	32	0	
13	0	0	0	0	0	515	510	512	32	0	
14	0	0	0	0	0	515	509	514	32	0	
15	0	0	0	0	0	514	510	512	31	0	
0	0	0	0	0	2	514	511	510	31	0	
1	0	0	0	0	0	514	509	512	31	0	
2	0	0	0	0	0	515	512	512	31	0	
3	0	0	0	0	0	513	509	512	32	0	
4	0	0	0	0	0	513	509	510	31	0	
5	0	0	0	0	0	513	508	509	31	0	
6	0	0	0	0	0	512	510	510	32	0	
7	0	0	0	0	0	511	510	510	31	0	
8	0	0	0	0	2	512	512	511	31	0	
9	0	0	0	0	0	513	509	508	31	0	
10	0	0	0	0	0	515	511	509	31	0	
11	0	0	0	0	0	514	509	512	32	0	
12	0	0	0	0	0	515	510	514	32	0	
13	0	0	0	0	0	516	510	513	32	0	
14	0	0	0	0	0	513	508	512	31	0	
15	0	0	0	0	0	515	510	509	31	0	
0	0	0	0	0	2	515	509	510	31	0	
1	0	0	0	0	0	514	510	511	32	0	
2	0	0	0	0	0	516	510	511	32	0	
3	0	0	0	0	0	516	508	511	32	0	
4	0	0	0	0	0	514	509	508	32	0	
5	0	0	0	0	0	513	508	511	32	0	
6	0	0	0	0	0	514	512	510	31	0	
7	0	0	0	0	0	512	510	511	31	0	
8	0	0	0	0	2	512	511	510	32	0	
9	0	0	0	0	0	513	509	512	32	0	
10	0	0	0	0	0	514	510	511	32	0	
11	0	0	0	0	0	512	510	511	31	0	
12	0	0	0	0	0	512	511	510	31	0	
13	0	0	0	0	0	513	509	512	32	0	
14	0	0	0	0	0	515	509	512	32	0	
15	0	0	0	0	0	513	509	509	32	0	
0	0	0	0	0	1	514	508	509	32	0	
1	0	0	0	0	0	513	507	511	32	0	
2	0	0	0	0	0	515	511	511	32	0	
3	0	0	0	0	0	513	509	513	31	0	
4	0	0	0	0	0	513	508	514	31	0	
5	0	0	0	0	0	514	511	510	31	0	
6	0	0	0	0	0	513	512	509	31	0	
7	0	0	0	0	0	511	510	510	32	0	
8	0	0	0	0	1	515	510	512	32	0	
9	0	0	0	0	0	514	512	510	32	0	
10	0	0	0	0	0	513	510	511	32	0	
11	0	0	0	0	0	515	509	510	31	0	
12	0	0	0	0	0	513	508	511	32	0	
13	0	0	0	0	0	515	508	512	32	0	
14	0	0	0	0	0	515	508	513	31	0	
15	0	0	0	0	0	513	510	512	31	0	
0	0	0	0	0	1	513	510	515	31	0	
1	0	0	0	0	0	514	509	512	31	0	
2	0	0	0	0	0	513	509	512	31	0	
3	0	0	0	0	0	513	511	509	31	0	
4	0	0	0	0	0	515	513	506	32	0	
5	0	0	0	0	0	514	510	510	32	0	
6	0	0	0	0	0	514	511	513	32	0	
7	0	0	0	0	0	512	511	511	32	0	
8	0	0	0	0	2	514	511	513	32	0	
9	0	0	0	0	0	512	511	511	32	0	
10	0	0	0	0	0	515	511	510	32	0	
11	0	0	0	0	0	515	512	512	32	0	
12	0	0	0	0	0	513	510	509	32	0	
13	0	0	0	0	0	514	509	510	32	0	
14	0	0	0	0	0	515	507	511	31	0	
15	0	0	0	0	0	514	509	511	31	0	
0	0	0	0	0	2	512	510	510	31	0	
1	0	0	0	0	0	515	508	512	31	0	
2	0	0	0	0	0	518	510	508	31	0	
3	0	0	0	0	0	513	512	510	31	0	
4	0	0	0	0	0	513	510	511	32	0	
5	0	0	0	0	0	515	511	513	32	0	
6	0	0	0	0	0	513	508	513	32	0	
7	0	0	0	0	0	513	508	511	32	0	
8	0	0	0	0	2	513	509	512	32	0	
9	0	0	0	0	0	513	513	511	32	0	
10	0	0	0	0	0	513	511	511	31	0	
11	0	0	0	0	0	512	509	512	31	0	
12	0	0	0	0	0	515	508	512	31	0	
13	0	0	0	0	0	515	509	512	31	0	
14	0	0	0	0	0	514	510	511	31	0	
15	0	0	0	0	0	514	510	512	31	0	
0	0	0	0	0	2	515	507	510	31	0	
1	0	0	0	0	0	514	509	509	31	0	
2	0	0	0	0	0	517	508	511	32	0	
3	0	0	0	0	0	515	510	509	32	0	
4	0	0	0	0	0	515	510	512	32	0	
5	0	0	0	0	0	514	506	509	31	0	
6	0	0	0	0	0	514	510	511	32	0	
7	0	0	0	0	0	512	510	513	31	0	
8	0	0	0	0	2	512	509	511	32	0	
9	0	0	0	0	0	513	508	509	32	0	
10	0	0	0	0	0	513	511	512	31	0	
11	0	0	0	0	0	513	512	512	31	0	
12	0	0	0	0	0	514	509	510	31	0	
13	0	0	0	0	0	514	508	514	32	0	
14	0	0	0	0	0	515	510	512	32	0	
15	0	0	0	0	0	514	510	513	32	0	
0	0	0	0	0	2	513	508	511	31	0	
1	0	0	0	0	0	513	510	510	31	0	
2	0	0	0	0	0	512	510	510	32	0	
3	0	0	0	0	0	513	511	510	31	0	
4	0	0	0	0	0	514	511	512	32	0	
5	0	0	0	0	0	512	512	512	32	0	
6	0	0	0	0	0	515	510	511	31	0	
7	0	0	0	0	0	515	510	515	32	0	
8	0	0	0	0	2	514	509	513	32	0	
9	0	0	0	0	0	513	510	514	31	0	
10	0	0	0	0	0	513	508	513	31	0	
11	0	0	0	0	0	515	509	511	32	0	
12	0	0	0	0	0	515	511	509	32	0	
13	0	0	0	0	0	513	508	509	31	0	
14	0	0	0	0	0	517	510	507	32	0	
15	0	0	0	0	0	515	511	508	31	0	
0	0	0	0	0	2	514	510	509	32	0	
1	0	0	0	0	0	514	508	511	31	0	
2	0	0	0	0	0	513	510	510	31	0	
3	0	0	0	0	0	513	509	510	31	0	
4	0	0	0	0	0	515	510	512	31	0	
5	0	0	0	0	0	514	512	511	32	0	
6	0	0	0	0	0	513	508	514	32	0	
7	0	0	0	0	0	512	507	513	32	0	
8	0	0	0	0	2	514	508	510	32	0	
9	0	0	0	0	0	514	510	510	31	0	
10	0	0	0	0	0	512	512	511	31	0	
11	0	0	0	0	0	512	512	512	32	0	
12	0	0	0	0	0	513	509	512	32	0	
13	0	0	0	0	0	513	509	511	31	0	
14	0	0	0	0	0	513	508	509	31	0	
15	0	0	0	0	0	515	513	511	31	0	
0	0	0	0	0	2	515	510	511	32	0	
1	0	0	0	0	0	514	509	512	32	0	
2	0	0	0	0	0	513	508	512	32	0	
3	0	0	0	0	0	513	508	512	32	0	
4	0	0	0	0	0	515	508	508	31	0	
5	0	0	0	0	0	514	510	509	32	0	
6	0	0	0	0	0	515	508	510	32	0	
7	0	0	0	0	0	516	512	512	31	0	
8	0	0	0	0	2	514	508	510	31	0	
9	0	0	0	0	0	513	510	512	31	0	
10	0	0	0	0	0	513	509	512	32	0	
11	0	0	0	0	0	512	511	512	32	0	
12	0	0	0	0	0	513	511	512	32	0	
13	0	0	0	0	0	515	510	512	31	0	
14	0	0	0	0	0	513	511	510	32	0	
15	0	0	0	0	0	513	509	511	31	0	
0	0	0	0	0	1	513	508	511	32	0	
1	0	0	0	0	0	513	509	511	31	0	
2	0	0	0	0	0	513	511	510	31	0	
3	0	0	0	0	0	515	508	511	32	0	
4	0	0	0	0	0	515	510	513	32	0	
5	0	0	0	0	0	513	511	508	32	0	
6	0	0	0	0	0	515	510	510	32	0	
7	0	0	0	0	0	513	509	510	32	0	
8	0	0	0	0	1	515	510	510	32	0	
9	0	0	0	0	0	514	509	511	32	0	
10	0	0	0	0	0	514	510	511	32	0	
11	0	0	0	0	0	514	510	510	31	0	
12	0	0	0	0	0	514	510	510	31	0	
13	0	0	0	0	0	513	510	512	31	0	
14	0	0	0	0	0	514	510	511	31	0	
15	0	0	0	0	0	514	512	512	31	0	
0	0	0	0	0	0	515	511	513	31	0	
1	0	0	0	0	0	515	510	511	31	0	
2	0	0	0	0	0	513	510	512	31	0	
3	0	0	0	0	0	512	510	512	32	0	
4	0	0	0	0	0	511	508	512	32	0	
5	0	0	0	0	0	512	509	510	32	0	
6	0	0	0	0	0	513	509	509	32	0	
7	0	0	0	0	0	513	509	511	31	0	
8	0	0	0	0	2	514	509	512	32	0	
9	0	0	0	0	0	515	507	513	31	0	
10	0	0	0	0	0	514	510	511	32	0	
11	0	0	0	0	0	515	508	512	32	0	
12	0	0	0	0	0	515	510	512	31	0	
13	0	0	0	0	0	515	511	512	31	0	
14	0	0	0	0	0	515	511	511	31	0	
15	0	0	0	0	0	513	508	510	31	0	
0	0	0	0	0	2	512	509	512	31	0	
1	0	0	0	0	0	513	510	508	31	0	
2	0	0	0	0	0	515	509	510	32	0	
3	0	0	0	0	0	515	512	511	32	0	
4	0	0	0	0	0	515	511	511	32	0	
5	0	0	0	0	0	516	509	513	32	0	
6	0	0	0	0	0	514	510	511	32	0	
7	0	0	0	0	0	515	511	511	31	0	
8	0	0	0	0	2	512	512	508	32	0	
9	0	0	0	0	0	514	510	511	32	0	
10	0	0	0	0	0	512	508	512	32	0	
11	0	0	0	0	0	513	508	511	31	0	
12	0	0	0	0	0	514	508	510	31	0	
13	0	0	0	0	0	515	511	511	31	0	
14	0	0	0	0	0	515	507	510	31	0	
15	0	0	0	0	0	513	510	511	32	0	
0	0	0	0	0	2	514	508	512	32	0	
1	0	0	0	0	0	515	511	514	31	0	
2	0	0	0	0	0	514	510	514	32	0	
3	0	0	0	0	0	515	510	511	31	0	
4	0	0	0	0	0	513	508	511	32	0	
5	0	0	0	0	0	513	510	511	32	0	
6	0	0	0	0	0	514	512	511	32	0	
7	0	0	0	0	0	512	510	512	31	0	
8	0	0	0	0	2	515	512	512	31	0	
9	0	0	0	0	0	512	511	512	31	0	
10	0	0	0	0	0	514	510	511	31	0	
11	0	0	0	0	0	514	510	508	31	0	
12	0	0	0	0	0	515	507	509	31	0	
13	0	0	0	0	0	512	508	512	31	0	
14	0	0	0	0	0	511	508	512	32	0	
15	0	0	0	0	0	514	511	512	31	0	
0	0	0	0	0	2	513	511	512	32	0	
1	0	0	0	0	0	513	510	511	31	0	
2	0	0	0	0	0	513	510	509	32	0	
3	0	0	0	0	0	513	510	510	32	0	
4	0	0	0	0	0	512	509	511	32	0	
5	0	0	0	0	0	515	510	511	32	0	
6	0	0	0	0	0	515	509	511	31	0	
7	0	0	0	0	0	513	510	510	32	0	
8	0	0	0	0	2	515	509	511	31	0	
9	0	0	0	0	0	516	509	509	31	0	
10	0	0	0	0	0	514	509	511	32	0	
11	0	0	0	0	0	514	508	512	32	0	
12	0	0	0	0	0	515	511	511	32	0	
13	0	0	0	0	0	515	510	509	31	0	
14	0	0	0	0	0	514	509	511	31	0	
15	0	0	0	0	0	513	512	513	32	0	
0	0	0	0	0	2	513	510	515	32	0	
1	0	0	0	0	0	512	511	513	31	0	
2	0	0	0	0	0	513	509	514	32	0	
3	0	0	0	0	0	514	508	511	31	0	
4	0	0	0	0	0	516	510	510	32	0	
5	0	0	0	0	0	512	509	512	31	0	
6	0	0	0	0	0	512	511	512	31	0	
7	0	0	0	0	0	511	510	511	32	0	
8	0	0	0	0	2	512	507	511	32	0	
9	0	0	0	0	0	515	509	511	31	0	
10	0	0	0	0	0	513	511	511	32	0	
11	0	0	0	0	0	514	510	509	31	0	
12	0	0	0	0	0	515	510	511	32	0	
13	0	0	0	0	0	514	509	512	32	0	
14	0	0	0	0	0	513	508	512	32	0	
15	0	0	0	0	0	515	509	511	31	0	
0	0	0	0	0	2	515	510	511	31	0	
1	0	0	0	0	0	515	511	508	31	0	
2	0	0	0	0	0	514	511	511	31	0	
3	0	0	0	0	0	513	509	511	31	0	
4	0	0	0	0	0	514	511	510	31	0	
5	0	0	0	0	0	513	511	512	31	0	
6	0	0	0	0	0	513	510	509	31	0	
7	0	0	0	0	0	515	508	510	31	0	
8	0	0	0	0	2	513	508	510	31	0	
9	0	0	0	0	0	512	511	510	31	0	
10	0	0	0	0	0	513	510	511	32	0	
11	0	0	0	0	0	511	511	510	32	0	
12	0	0	0	0	0	514	511	513	32	0	
13	0	0	0	0	0	513	510	514	32	0	
14	0	0	0	0	0	515	510	512	32	0	
15	0	0	0	0	0	512	506	511	32	0	
0	0	0	0	0	1	513	510	512	31	0	
1	0	0	0	0	0	514	507	511	32	0	
2	0	0	0	0	0	514	510	511	31	0	
3	0	0	0	0	0	514	510	511	31	0	
4	0	0	0	0	0	513	511	512	31	0	
5	0	0	0	0	0	514	513	512	31	0	
6	0	0	0	0	0	514	508	511	31	0	
7	0	0	0	0	0	515	510	510	31	0	
8	0	0	0	0	1	515	511	511	31	0	
9	0	0	0	0	0	514	510	512	32	0	
10	0	0	0	0	0	515	509	511	32	0	
11	0	0	0	0	0	515	511	511	32	0	
12	0	0	0	0	0	515	508	510	32	0	
13	0	0	0	0	0	513	509	509	31	0	
14	0	0	0	0	0	513	509	511	32	0	
15	0	0	0	0	0	512	509	511	32	0	
0	0	0	0	0	2	515	510	510	32	0	
1	0	0	0	0	0	513	508	511	31	0	
2	0	0	0	0	0	515	510	511	31	0	
3	0	0	0	0	0	512	511	510	31	0	
4	0	0	0	0	0	514	512	511	31	0	
5	0	0	0	0	0	515	509	511	32	0	
6	0	0	0	0	0	514	510	510	31	0	
7	0	0	0	0	0	515	509	513	31	0	
8	0	0	0	0	2	513	510	512	31	0	
9	0	0	0	0	0	512	510	511	32	0	
10	0	0	0	0	0	513	510	510	31	0	
11	0	0	0	0	0	512	508	511	31	0	
12	0	0	0	0	0	514	510	513	32	0	
13	0	0	0	0	0	514	508	511	32	0	
14	0	0	0	0	0	513	508	512	32	0	
15	0	0	0	0	0	514	508	510	31	0	
0	0	0	0	0	2	513	510	510	32	0	
1	0	0	0	0	0	513	510	511	32	0	
2	0	0	0	0	0	514	509	511	32	0	
3	0	0	0	0	0	514	510	510	32	0	
4	0	0	0	0	0	515	510	512	32	0	
5	0	0	0	0	0	512	511	512	32	0	
6	0	0	0	0	0	512	511	513	31	0	
7	0	0	0	0	0	515	512	512	31	0	
8	0	0	0	0	2	512	511	510	32	0	
9	0	0	0	0	0	513	510	512	31	0	
10	0	0	0	0	0	512	511	512	32	0	
11	0	0	0	0	0	514	510	512	31	0	
12	0	0	0	0	0	513	511	512	32	0	
13	0	0	0	0	0	515	507	512	32	0	
14	0	0	0	0	0	513	509	510	32	0	
15	0	0	0	0	0	514	508	511	32	0	
0	0	0	0	0	2	513	510	509	32	0	
1	0	0	0	0	0	516	508	513	32	0	
2	0	0	0	0	0	514	510	511	32	0	
3	0	0	0	0	0	515	508	511	31	0	
4	0	0	0	0	0	514	510	511	32	0	
5	0	0	0	0	0	512	511	512	31	0	
6	0	0	0	0	0	515	508	510	31	0	
7	0	0	0	0	0	513	510	513	32	0	
8	0	0	0	0	2	513	510	512	32	0	
9	0	0	0	0	0	515	509	511	32	0	
10	0	0	0	0	0	513	510	511	32	0	
11	0	0	0	0	0	515	512	510	32	0	
12	0	0	0	0	0	512	510	510	32	0	
13	0	0	0	0	0	513	508	509	31	0	
14	0	0	0	0	0	514	509	510	31	0	
15	0	0	0	0	0	515	511	508	31	0	
0	0	0	0	0	2	514	510	512	32	0	
1	0	0	0	0	0	514	509	512	32	0	
2	0	0	0	0	0	513	508	513	31	0	
3	0	0	0	0	0	513	510	513	32	0	
4	0	0	0	0	0	513	510	511	32	0	
5	0	0	0	0	0	512	511	511	32	0	
6	0	0	0	0	0	514	511	511	31	0	
7	0	0	0	0	0	514	510	513	31	0	
8	0	0	0	0	2	512	509	511	31	0	
9	0	0	0	0	0	515	511	510	31	0	
10	0	0	0	0	0	513	508	511	32	0	
11	0	0	0	0	0	513	510	511	31	0	
12	0	0	0	0	0	515	507	509	31	0	
13	0	0	0	0	0	513	509	508	31	0	
14	0	0	0	0	0	514	510	510	32	0	
15	0	0	0	0	0	513	512	512	32	0	
0	0	0	0	0	2	514	510	513	31	0	
1	0	0	0	0	0	513	510	512	32	0	
2	0	0	0	0	0	513	510	512	32	0	
3	0	0	0	0	0	513	510	512	31	0	
4	0	0	0	0	0	514	511	512	32	0	
5	0	0	0	0	0	512	508	513	31	0	
6	0	0	0	0	0	513	510	510	31	0	
7	0	0	0	0	0	513	511	512	31	0	
8	0	0	0	0	2	515	507	511	31	0	
9	0	0	0	0	0	514	509	511	31	0	
10	0	0	0	0	0	515	508	509	32	0	
11	0	0	0	0	0	515	510	512	32	0	
12	0	0	0	0	0	512	510	511	32	0	
13	0	0	0	0	0	512	508	511	32	0	
14	0	0	0	0	0	515	509	513	32	0	
15	0	0	0	0	0	513	510	510	32	0	
0	0	0	0	0	2	515	510	510	32	0	
1	0	0	0	0	0	513	509	510	32	0	
2	0	0	0	0	0	513	510	512	31	0	
3	0	0	0	0	0	514	512	511	31	0	
4	0	0	0	0	0	513	510	510	32	0	
5	0	0	0	0	0	515	511	511	32	0	
6	0	0	0	0	0	515	511	510	31	0	
7	0	0	0	0	0	514	511	511	31	0	
8	0	0	0	0	1	514	511	513	31	0	
9	0	0	0	0	0	514	509	511	31	0	
10	0	0	0	0	0	515	511	510	32	0	
11	0	0	0	0	0	512	508	508	31	0	
12	0	0	0	0	0	515	511	509	31	0	
13	0	0	0	0	0	514	511	509	32	0	
14	0	0	0	0	0	512	508	512	32	0	
15	0	0	0	0	0	512	506	514	32	0	
0	0	0	0	0	1	514	508	513	32	0	
1	0	0	0	0	0	515	508	513	32	0	
2	0	0	0	0	0	516	511	511	31	0	
3	0	0	0	0	0	513	510	510	31	0	
4	0	0	0	0	0	514	510	511	31	0	
5	0	0	0	0	0	513	511	512	32	0	
6	0	0	0	0	0	514	508	510	31	0	
7	0	0	0	0	0	514	509	511	32	0	
8	0	0	0	0	1	515	510	509	31	0	
9	0	0	0	0	0	512	508	510	32	0	
10	0	0	0	0	0	511	508	513	32	0	
11	0	0	0	0	0	512	511	515	32	0	
12	0	0	0	0	0	511	511	514	32	0	
13	0	0	0	0	0	511	511	513	32	0	
14	0	0	0	0	0	512	510	511	32	0	
15	0	0	0	0	0	515	508	514	31	0	
0	0	0	0	0	2	515	510	510	31	0	
1	0	0	0	0	0	515	509	510	32	0	
2	0	0	0	0	0	513	509	510	31	0	
3	0	0	0	0	0	513	510	510	32	0	
4	0	0	0	0	0	515	510	508	31	0	
5	0	0	0	0	0	516	509	509	31	0	
6	0	0	0	0	0	515	511	511	31	0	
7	0	0	0	0	0	513	509	509	31	0	
8	0	0	0	0	2	513	509	512	32	0	
9	0	0	0	0	0	513	509	510	32	0	
10	0	0	0	0	0	515	512	512	31	0	
11	0	0	0	0	0	512	512	513	31	0	
12	0	0	0	0	0	512	511	511	31	0	
13	0	0	0	0	0	513	508	512	31	0	
14	0	0	0	0	0	511	509	512	31	0	
15	0	0	0	0	0	515	512	512	31	0	
0	0	0	0	0	2	515	511	512	32	0	
1	0	0	0	0	0	515	511	512	31	0	
2	0	0	0	0	0	513	510	511	31	0	
3	0	0	0	0	0	514	510	510	32	0	
4	0	0	0	0	0	513	510	511	32	0	
5	0	0	0	0	0	512	510	510	32	0	
6	0	0	0	0	0	513	510	509	32	0	
7	0	0	0	0	0	514	509	512	32	0	
8	0	0	0	0	2	514	509	510	31	0	
9	0	0	0	0	0	513	508	509	32	0	
10	0	0	0	0	0	513	508	509	31	0	
11	0	0	0	0	0	514	508	510	31	0	
12	0	0	0	0	0	515	510	511	32	0	
13	0	0	0	0	0	512	509	512	32	0	
14	0	0	0	0	0	511	512	511	31	0	
15	0	0	0	0	0	512	511	512	31	0	
0	0	0	0	0	2	513	507	513	31	0	
1	0	0	0	0	0	515	505	512	32	0	
2	0	0	0	0	0	515	507	510	32	0	
3	0	0	0	0	0	514	510	511	32	0	
4	0	0	0	0	0	515	511	511	31	0	
5	0	0	0	0	0	517	511	510	31	0	
6	0	0	0	0	0	515	511	510	32	0	
7	0	0	0	0	0	514	510	511	32	0	
8	0	0	0	0	2	512	511	509	32	0	
9	0	0	0	0	0	513	511	512	31	0	
10	0	0	0	0	0	512	510	511	31	0	
11	0	0	0	0	0	513	508	511	32	0	
12	0	0	0	0	0	515	507	512	32	0	
13	0	0	0	0	0	514	509	513	32	0	
14	0	0	0	0	0	513	510	513	32	0	
15	0	0	0	0	0	514	510	510	31	0	
0	0	0	0	0	2	515	509	510	31	0	
1	0	0	0	0	0	511	511	509	32	0	
2	0	0	0	0	0	515	508	511	31	0	
3	0	0	0	0	0	513	509	513	31	0	
4	0	0	0	0	0	513	511	512	32	0	
5	0	0	0	0	0	515	511	514	32	0	
6	0	0	0	0	0	513	511	512	31	0	
7	0	0	0	0	0	512	510	512	32	0	
8	0	0	0	0	2	515	510	511	32	0	
9	0	0	0	0	0	514	511	508	32	0	
10	0	0	0	0	0	514	510	511	31	0	
11	0	0	0	0	0	515	511	510	32	0	
12	0	0	0	0	0	515	512	509	31	0	
13	0	0	0	0	0	516	510	511	31	0	
14	0	0	0	0	0	512	508	510	31	0	
15	0	0	0	0	0	514	508	510	31	0	
0	0	0	0	0	2	513	510	513	31	0	
1	0	0	0	0	0	514	512	511	31	0	
2	0	0	0	0	0	515	509	514	31	0	
3	0	0	0	0	0	516	509	513	31	0	
4	0	0	0	0	0	515	510	513	32	0	
5	0	0	0	0	0	513	509	512	32	0	
6	0	0	0	0	0	513	512	509	31	0	
7	0	0	0	0	0	513	509	511	31	0	
8	0	0	0	0	2	513	509	509	31	0	
9	0	0	0	0	0	514	509	514	31	0	
10	0	0	0	0	0	512	508	513	32	0	
11	0	0	0	0	0	513	511	511	32	0	
12	0	0	0	0	0	512	510	509	31	0	
13	0	0	0	0	0	512	508	509	32	0	
14	0	0	0	0	0	513	510	511	31	0	
15	0	0	0	0	0	515	510	511	31	0	
0	0	0	0	0	2	515	509	512	32	0	
1	0	0	0	0	0	513	511	513	32	0	
2	0	0	0	0	0	515	509	510	32	0	
3	0	0	0	0	0	515	508	512	31	0	
4	0	0	0	0	0	512	508	513	32	0	
5	0	0	0	0	0	513	510	511	32	0	
6	0	0	0	0	0	515	510	511	32	0	
7	0	0	0	0	0	515	509	509	32	0	
8	0	0	0	0	1	512	509	511	31	0	
9	0	0	0	0	0	514	508	512	32	0	
10	0	0	0	0	0	515	508	511	32	0	
11	0	0	0	0	0	514	511	511	32	0	
12	0	0	0	0	0	513	510	512	32	0	
13	0	0	0	0	0	515	510	513	32	0	
14	0	0	0	0	0	513	509	512	32	0	
15	0	0	0	0	0	514	509	512	32	0	
0	0	0	0	0	1	513	510	512	31	0	
1	0	0	0	0	0	517	511	511	31	0	
2	0	0	0	0	0	514	510	512	31	0	
3	0	0	0	0	0	514	509	511	31	0	
4	0	0	0	0	0	515	509	508	31	0	
5	0	0	0	0	0	514	510	510	31	0	
6	0	0	0	0	0	514	510	510	32	0	
7	0	0	0	0	0	515	512	510	32	0	
8	0	0	0	0	1	513	510	508	32	0	
9	0	0	0	0	0	515	511	508	31	0	
10	0	0	0	0	0	513	510	510	31	0	
11	0	0	0	0	0	514	509	511	32	0	
12	0	0	0	0	0	514	508	511	32	0	
13	0	0	0	0	0	513	511	513	32	0	
14	0	0	0	0	0	513	511	512	32	0	
15	0	0	0	0	0	515	509	512	31	0	
0	0	0	0	0	2	512	512	510	31	0	
1	0	0	0	0	0	513	510	510	31	0	
2	0	0	0	0	0	513	507	513	31	0	
3	0	0	0	0	0	512	509	513	31	0	
4	0	0	0	0	0	513	510	512	31	0	
5	0	0	0	0	0	514	510	511	31	0	
6	0	0	0	0	0	514	510	510	32	0	
7	0	0	0	0	0	514	509	513	32	0	
8	0	0	0	0	2	514	511	514	32	0	
9	0	0	0	0	0	515	509	512	32	0	
10	0	0	0	0	0	515	510	511	31	0	
11	0	0	0	0	0	516	508	511	31	0	
12	0	0	0	0	0	514	509	508	31	0	
13	0	0	0	0	0	514	510	511	32	0	
14	0	0	0	0	0	513	509	509	32	0	
15	0	0	0	0	0	512	507	510	31	0	
0	0	0	0	0	2	514	511	512	31	0	
1	0	0	0	0	0	514	512	512	32	0	
2	0	0	0	0	0	512	509	513	32	0	
3	0	0	0	0	0	514	508	511	32	0	
4	0	0	0	0	0	515	508	512	31	0	
5	0	0	0	0	0	514	509	513	32	0	
6	0	0	0	0	0	514	509	511	32	0	
7	0	0	0	0	0	513	508	510	32	0	
8	0	0	0	0	2	514	511	511	32	0	
9	0	0	0	0	0	514	512	511	32	0	
10	0	0	0	0	0	514	512	511	31	0	
11	0	0	0	0	0	512	511	511	31	0	
12	0	0	0	0	0	512	511	512	31	0	
13	0	0	0	0	0	513	508	511	32	0	
14	0	0	0	0	0	513	509	509	31	0	
15	0	0	0	0	0	515	510	509	31	0	
0	0	0	0	0	2	515	509	511	31	0	
1	0	0	0	0	0	513	512	512	31	0	
2	0	0	0	0	0	512	513	512	31	0	
3	0	0	0	0	0	515	509	509	32	0	
4	0	0	0	0	0	514	508	510	32	0	
5	0	0	0	0	0	512	504	511	32	0	
6	0	0	0	0	0	510	508	513	32	0	
7	0	0	0	0	0	512	511	511	32	0	
8	0	0	0	0	2	514	508	511	32	0	
9	0	0	0	0	0	515	511	513	31	0	
10	0	0	0	0	0	513	510	511	31	0	
11	0	0	0	0	0	516	510	510	31	0	
12	0	0	0	0	0	515	508	510	32	0	
13	0	0	0	0	0	515	510	509	31	0	
14	0	0	0	0	0	515	509	511	32	0	
15	0	0	0	0	0	513	508	512	32	0	
0	0	0	0	0	2	515	507	512	32	0	
1	0	0	0	0	0	514	509	510	32	0	
2	0	0	0	0	0	513	510	511	31	0	
3	0	0	0	0	0	515	510	511	31	0	
4	0	0	0	0	0	515	510	509	32	0	
5	0	0	0	0	0	513	509	512	32	0	
6	0	0	0	0	0	512	511	512	32	0	
7	0	0	0	0	0	513	510	513	32	0	
8	0	0	0	0	2	515	512	509	31	0	
9	0	0	0	0	0	518	511	510	32	0	
10	0	0	0	0	0	514	510	513	32	0	
11	0	0	0	0	0	513	510	512	32	0	
12	0	0	0	0	0	512	511	510	31	0	
13	0	0	0	0	0	513	509	513	32	0	
14	0	0	0	0	0	513	511	512	32	0	
15	0	0	0	0	0	513	510	510	31	0	
0	0	0	0	0	2	516	511	509	31	0	
1	0	0	0	0	0	515	511	509	31	0	
2	0	0	0	0	0	515	508	510	32	0	
3	0	0	0	0	0	512	508	511	32	0	
4	0	0	0	0	0	514	509	512	31	0	
5	0	0	0	0	0	513	509	513	32	0	
6	0	0	0	0	0	512	510	511	31	0	
7	0	0	0	0	0	511	507	512	31	0	
8	0	0	0	0	2	511	506	511	32	0	
9	0	0	0	0	0	513	510	511	31	0	
10	0	0	0	0	0	514	510	511	31	0	
11	0	0	0	0	0	513	509	510	31	0	
12	0	0	0	0	0	517	510	512	31	0	
13	0	0	0	0	0	515	511	511	31	0	
14	0	0	0	0	0	513	511	510	32	0	
15	0	0	0	0	0	512	511	510	31	0	
0	0	0	0	0	2	513	508	511	32	0	
1	0	0	0	0	0	511	507	513	32	0	
2	0	0	0	0	0	513	509	513	32	0	
3	0	0	0	0	0	515	509	511	32	0	
4	0	0	0	0	0	515	510	512	32	0	
5	0	0	0	0	0	513	508	513	32	0	
6	0	0	0	0	0	514	510	512	31	0	
7	0	0	0	0	0	515	511	509	31	0	
8	0	0	0	0	1	515	511	511	31	0	
9	0	0	0	0	0	511	511	512	32	0	
10	0	0	0	0	0	510	510	512	32	0	
11	0	0	0	0	0	512	509	509	31	0	
12	0	0	0	0	0	511	510	512	31	0	
13	0	0	0	0	0	513	510	511	31	0	
14	0	0	0	0	0	513	508	512	32	0	
15	0	0	0	0	0	512	507	511	32	0	
0	0	0	0	0	1	514	510	511	32	0	
1	0	0	0	0	0	514	511	510	31	0	
2	0	0	0	0	0	513	512	509	31	0	
3	0	0	0	0	0	515	509	510	31	0	
4	0	0	0	0	0	513	508	510	32	0	
5	0	0	0	0	0	515	510	511	31	0	
6	0	0	0	0	0	515	511	512	32	0	
7	0	0	0	0	0	515	512	512	31	0	
8	0	0	0	0	2	515	510	511	32	0	
9	0	0	0	0	0	514	510	509	32	0	
10	0	0	0	0	0	514	507	510	32	0	
11	0	0	0	0	0	512	508	510	32	0	
12	0	0	0	0	0	514	510	511	32	0	
13	0	0	0	0	0	515	509	511	32	0	
14	0	0	0	0	0	513	507	513	31	0	
15	0	0	0	0	0	514	511	511	31	0	
0	0	0	0	0	2	515	510	511	32	0	
1	0	0	0	0	0	513	508	511	31	0	
2	0	0	0	0	0	513	510	512	31	0	
3	0	0	0	0	0	512	509	510	32	0	
4	0	0	0	0	0	514	511	512	32	0	
5	0	0	0	0	0	513	510	513	32	0	
6	0	0	0	0	0	513	510	511	31	0	
7	0	0	0	0	0	515	509	512	32	0	
8	0	0	0	0	2	515	509	511	31	0	
9	0	0	0	0	0	515	510	510	31	0	
10	0	0	0	0	0	515	508	512	32	0	
11	0	0	0	0	0	515	507	514	32	0	
12	0	0	0	0	0	513	512	512	32	0	
13	0	0	0	0	0	515	511	510	32	0	
14	0	0	0	0	0	514	511	512	32	0	
15	0	0	0	0	0	515	507	511	32	0	
0	0	0	0	0	2	513	511	511	32	0	
1	0	0	0	0	0	514	509	512	31	0	
2	0	0	0	0	0	513	509	511	31	0	
3	0	0	0	0	0	512	508	510	32	0	
4	0	0	0	0	0	516	508	509	32	0	
5	0	0	0	0	0	514	509	511	32	0	
6	0	0	0	0	0	515	510	511	32	0	
7	0	0	0	0	0	513	508	512	32	0	
8	0	0	0	0	2	512	510	508	31	0	
9	0	0	0	0	0	511	513	510	32	0	
10	0	0	0	0	0	515	512	510	32	0	
11	0	0	0	0	0	515	511	512	31	0	
12	0	0	0	0	0	515	510	512	31	0	
13	0	0	0	0	0	514	507	511	32	0	
14	0	0	0	0	0	514	508	511	32	0	
15	0	0	0	0	0	513	507	513	32	0	
0	0	0	0	0	2	512	510	513	32	0	
1	0	0	0	0	0	513	511	513	32	0	
2	0	0	0	0	0	513	508	513	31	0	
3	0	0	0	0	0	512	510	511	31	0	
4	0	0	0	0	0	512	509	513	31	0	
5	0	0	0	0	0	513	510	512	32	0	
6	0	0	0	0	0	513	510	510	32	0	
7	0	0	0	0	0	513	511	511	31	0	
8	0	0	0	0	2	514	510	510	31	0	
9	0	0	0	0	0	513	510	511	31	0	
10	0	0	0	0	0	516	511	510	31	0	
11	0	0	0	0	0	514	509	510	32	0	
12	0	0	0	0	0	515	508	511	32	0	
13	0	0	0	0	0	516	508	512	32	0	
14	0	0	0	0	0	513	508	510	32	0	
15	0	0	0	0	0	516	508	510	32	0	
0	0	0	0	0	2	514	511	510	32	0	
1	0	0	0	0	0	516	511	510	31	0	
2	0	0	0	0	0	515	512	509	31	0	
3	0	0	0	0	0	514	509	512	32	0	
4	0	0	0	0	0	514	511	512	32	0	
5	0	0	0	0	0	513	510	512	31	0	
6	0	0	0	0	0	512	508	510	32	0	
7	0	0	0	0	0	514	507	510	32	0	
8	0	0	0	0	2	515	509	513	32	0	
9	0	0	0	0	0	513	510	512	32	0	
10	0	0	0	0	0	512	510	510	32	0	
11	0	0	0	0	0	513	513	507	32	0	
12	0	0	0	0	0	512	510	510	31	0	
13	0	0	0	0	0	513	509	513	31	0	
14	0	0	0	0	0	512	508	514	31	0	
15	0	0	0	0	0	511	511	515	31	0	
0	0	0	0	0	2	511	511	514	31	0	
1	0	0	0	0	0	512	510	511	31	0	
2	0	0	0	0	0	515	508	511	32	0	
3	0	0	0	0	0	514	509	512	31	0	
4	0	0	0	0	0	517	509	507	31	0	
5	0	0	0	0	0	515	509	509	31	0	
6	0	0	0	0	0	515	509	509	31	0	
7	0	0	0	0	0	514	510	510	32	0	
8	0	0	0	0	2	513	509	510	31	0	
9	0	0	0	0	0	511	508	512	32	0	
10	0	0	0	0	0	513	508	515	32	0	
11	0	0	0	0	0	513	510	514	32	0	
12	0	0	0	0	0	515	512	513	31	0	
13	0	0	0	0	0	515	510	511	31	0	
14	0	0	0	0	0	514	512	511	31	0	
15	0	0	0	0	0	515	508	510	32	0	
0	0	0	0	0	1	512	511	515	32	0	
1	0	0	0	0	0	512	512	512	32	0	
2	0	0	0	0	0	515	507	513	32	0	
3	0	0	0	0	0	515	508	513	31	0	
4	0	0	0	0	0	516	508	510	32	0	
5	0	0	0	0	0	516	510	509	32	0	
6	0	0	0	0	0	511	510	512	32	0	
7	0	0	0	0	0	512	513	515	31	0	
8	0	0	0	0	1	512	510	512	31	0	
9	0	0	0	0	0	515	508	510	31	0	
10	0	0	0	0	0	515	508	511	32	0	
11	0	0	0	0	0	512	508	512	31	0	
12	0	0	0	0	0	513	509	508	32	0	
13	0	0	0	0	0	512	507	511	32	0	
14	0	0	0	0	0	513	510	512	32	0	
15	0	0	0	0	0	515	512	511	32	0	
0	0	0	0	0	1	515	513	511	32	0	
1	0	0	0	0	0	517	512	512	31	0	
2	0	0	0	0	0	514	512	513	32	0	
3	0	0	0	0	0	517	509	511	32	0	
4	0	0	0	0	0	515	508	513	32	0	
5	0	0	0	0	0	516	508	512	32	0	
6	0	0	0	0	0	516	508	512	32	0	
7	0	0	0	0	0	518	510	510	32	0	
8	0	0	0	0	2	516	513	512	32	0	
9	0	0	0	0	0	515	512	512	32	0	
10	0	0	0	0	0	514	512	512	31	0	
11	0	0	0	0	0	512	508	512	31	0	
12	0	0	0	0	0	510	510	509	31	0	
13	0	0	0	0	0	512	507	508	32	0	
14	0	0	0	0	0	515	505	508	32	0	
15	0	0	0	0	0	513	507	505	31	0	
0	0	0	0	0	2	512	505	505	31	0	
1	0	0	0	0	0	512	510	510	31	0	
2	0	0	0	0	0	512	509	509	31	0	
3	0	0	0	0	0	512	510	513	31	0	
4	0	0	0	0	0	510	508	511	31	0	
5	0	0	0	0	0	514	508	508	31	0	
6	0	0	0	0	0	512	508	507	31	0	
7	0	0	0	0	0	513	507	509	31	0	
8	0	0	0	0	2	513	511	511	31	0	
9	0	0	0	0	0	514	510	510	31	0	
10	0	0	0	0	0	514	510	508	31	0	
11	0	0	0	0	0	515	510	510	31	0	
12	0	0	0	0	0	514	510	512	32	0	
13	0	0	0	0	0	512	509	515	32	0	
14	0	0	0	0	0	514	508	512	32	0	
15	0	0	0	0	0	517	508	512	32	0	
0	0	0	0	0	2	516	509	510	32	0	
1	0	0	0	0	0	516	509	508	32	0	
2	0	0	0	0	0	512	510	512	32	0	
3	0	0	0	0	0	510	509	512	31	0	
4	0	0	0	0	0	510	510	516	32	0	
5	0	0	0	0	0	511	511	515	32	0	
6	0	0	0	0	0	514	512	512	32	0	
7	0	0	0	0	0	514	510	513	32	0	
8	0	0	0	0	2	515	509	513	32	0	
9	0	0	0	0	0	516	513	512	32	0	
10	0	0	0	0	0	513	510	512	31	0	
11	0	0	0	0	0	513	508	509	31	0	
12	0	0	0	0	0	517	510	512	31	0	
13	0	0	0	0	0	517	510	511	32	0	
14	0	0	0	0	0	511	512	514	31	0	
15	0	0	0	0	0	511	510	514	31	0	
0	0	0	0	0	2	515	511	511	31	0	
1	0	0	0	0	0	515	510	513	32	0	
2	0	0	0	0	0	513	510	512	32	0	
3	0	0	0	0	0	516	511	510	31	0	
4	0	0	0	0	0	516	509	504	31	0	
5	0	0	0	0	0	515	511	509	31	0	
6	0	0	0	0	0	515	508	512	32	0	
7	0	0	0	0	0	513	511	512	32	0	
8	0	0	0	0	2	514	509	508	32	0	
9	0	0	0	0	0	512	508	511	32	0	
10	0	0	0	0	0	514	510	508	32	0	
11	0	0	0	0	0	515	510	510	31	0	
12	0	0	0	0	0	515	510	508	31	0	
13	0	0	0	0	0	516	511	512	31	0	
14	0	0	0	0	0	515	508	513	32	0	
15	0	0	0	0	0	514	508	510	31	0	
0	0	0	0	0	2	515	509	511	31	0	
1	0	0	0	0	0	513	509	510	32	0	
2	0	0	0	0	0	515	510	510	32	0	
3	0	0	0	0	0	512	508	512	32	0	
4	0	0	0	0	0	511	508	512	32	0	
5	0	0	0	0	0	512	507	514	31	0	
6	0	0	0	0	0	511	508	511	31	0	
7	0	0	0	0	0	511	512	513	31	0	
8	0	0	0	0	2	511	510	513	32	0	
9	0	0	0	0	0	511	510	513	31	0	
10	0	0	0	0	0	513	510	511	31	0	
11	0	0	0	0	0	512	512	512	31	0	
12	0	0	0	0	0	515	511	514	31	0	
13	0	0	0	0	0	515	506	512	32	0	
14	0	0	0	0	0	516	507	511	32	0	
15	0	0	0	0	0	516	511	510	32	0	
0	0	0	0	0	2	516	509	509	31	0	
1	0	0	0	0	0	517	511	507	31	0	
2	0	0	0	0	0	515	508	507	31	0	
3	0	0	0	0	0	511	510	512	32	0	
4	0	0	0	0	0	511	511	515	32	0	
5	0	0	0	0	0	513	510	512	31	0	
6	0	0	0	0	0	513	514	514	31	0	
7	0	0	0	0	0	513	510	513	32	0	
8	0	0	0	0	2	517	511	510	32	0	
9	0	0	0	0	0	516	508	506	31	0	
10	0	0	0	0	0	512	512	507	31	0	
11	0	0	0	0	0	513	511	513	31	0	
12	0	0	0	0	0	514	509	509	31	0	
13	0	0	0	0	0	513	507	512	32	0	
14	0	0	0	0	0	512	508	513	32	0	
15	0	0	0	0	0	513	508	510	32	0	
0	0	0	0	0	1	512	508	512	32	0	
1	0	0	0	0	0	513	508	510	32	0	
2	0	0	0	0	0	513	509	513	31	0	
3	0	0	0	0	0	512	509	514	32	0	
4	0	0	0	0	0	511	510	511	32	0	
5	0	0	0	0	0	515	512	510	32	0	
6	0	0	0	0	0	515	511	510	32	0	
7	0	0	0	0	0	515	511	509	32	0	
8	0	0	0	0	1	515	512	509	32	0	
9	0	0	0	0	0	513	508	510	31	0	
10	0	0	0	0	0	514	508	510	31	0	
11	0	0	0	0	0	513	510	508	31	0	
12	0	0	0	0	0	512	510	510	31	0	
13	0	0	0	0	0	513	511	512	31	0	
14	0	0	0	0	0	517	509	508	32	0	
15	0	0	0	0	0	516	507	507	32	0	
0	0	0	0	0	1	515	510	511	31	0	
1	0	0	0	0	0	512	512	513	31	0	
2	0	0	0	0	0	511	511	516	32	0	
3	0	0	0	0	0	515	505	515	32	0	
4	0	0	0	0	0	514	508	513	32	0	
5	0	0	0	0	0	511	510	513	31	0	
6	0	0	0	0	0	513	509	516	32	0	
7	0	0	0	0	0	511	510	516	32	0	
8	0	0	0	0	2	515	514	513	32	0	
9	0	0	0	0	0	515	512	510	31	0	
10	0	0	0	0	0	518	509	507	31	0	
11	0	0	0	0	0	517	508	505	31	0	
12	0	0	0	0	0	513	508	510	31	0	
13	0	0	0	0	0	511	509	515	32	0	
14	0	0	0	0	0	512	510	514	32	0	
15	0	0	0	0	0	513	508	512	32	0	
0	0	0	0	0	2	514	508	511	32	0	
1	0	0	0	0	0	515	508	509	31	0	
2	0	0	0	0	0	515	509	510	32	0	
3	0	0	0	0	0	514	510	510	32	0	
4	0	0	0	0	0	513	510	510	31	0	
5	0	0	0	0	0	515	510	512	32	0	
6	0	0	0	0	0	513	512	510	32	0	
7	0	0	0	0	0	512	512	510	31	0	
8	0	0	0	0	2	512	513	515	31	0	
9	0	0	0	0	0	512	513	512	31	0	
10	0	0	0	0	0	512	512	511	31	0	
11	0	0	0	0	0	515	511	509	31	0	
12	0	0	0	0	0	515	507	509	32	0	
13	0	0	0	0	0	512	510	511	32	0	
14	0	0	0	0	0	513	508	510	32	0	
15	0	0	0	0	0	514	507	511	32	0	
0	0	0	0	0	2	515	508	508	31	0	
1	0	0	0	0	0	514	509	511	32	0	
2	0	0	0	0	0	512	510	511	31	0	
3	0	0	0	0	0	517	508	510	31	0	
4	0	0	0	0	0	516	510	511	32	0	
5	0	0	0	0	0	514	509	511	32	0	
6	0	0	0	0	0	515	512	510	31	0	
7	0	0	0	0	0	513	511	511	32	0	
8	0	0	0	0	2	512	511	511	31	0	
9	0	0	0	0	0	513	509	512	31	0	
10	0	0	0	0	0	510	510	513	31	0	
11	0	0	0	0	0	510	511	512	31	0	
12	0	0	0	0	0	513	509	513	32	0	
13	0	0	0	0	0	515	507	510	32	0	
14	0	0	0	0	0	517	507	509	32	0	
15	0	0	0	0	0	513	508	513	32	0	
0	0	0	0	0	2	514	510	511	32	0	
1	0	0	0	0	0	516	512	509	31	0	
2	0	0	0	0	0	515	515	510	31	0	
3	0	0	0	0	0	512	513	512	32	0	
4	0	0	0	0	0	512	507	512	32	0	
5	0	0	0	0	0	515	506	508	31	0	
6	0	0	0	0	0	514	506	511	32	0	
7	0	0	0	0	0	515	505	512	32	0	
8	0	0	0	0	2	515	508	511	31	0	
9	0	0	0	0	0	512	508	512	31	0	
10	0	0	0	0	0	513	512	510	31	0	
11	0	0	0	0	0	514	508	509	32	0	
12	0	0	0	0	0	514	511	510	31	0	
13	0	0	0	0	0	515	511	511	31	0	
14	0	0	0	0	0	512	510	512	32	0	
15	0	0	0	0	0	511	511	515	31	0	
0	0	0	0	0	2	514	512	512	31	0	
1	0	0	0	0	0	512	510	510	31	0	
2	0	0	0	0	0	514	509	512	32	0	
3	0	0	0	0	0	513	510	513	32	0	
4	0	0	0	0	0	513	506	513	32	0	
5	0	0	0	0	0	515	509	512	32	0	
6	0	0	0	0	0	514	509	512	31	0	
7	0	0	0	0	0	515	512	509	31	0	
8	0	0	0	0	2	512	510	514	32	0	
9	0	0	0	0	0	511	509	512	32	0	
10	0	0	0	0	0	512	508	513	32	0	
11	0	0	0	0	0	513	509	510	32	0	
12	0	0	0	0	0	514	508	512	32	0	
13	0	0	0	0	0	513	510	512	32	0	
14	0	0	0	0	0	516	509	510	32	0	
15	0	0	0	0	0	514	511	514	31	0	
0	0	0	0	0	2	515	512	511	32	0	
1	0	0	0	0	0	513	510	511	32	0	
2	0	0	0	0	0	514	509	511	32	0	
3	0	0	0	0	0	515	509	509	31	0	
4	0	0	0	0	0	514	511	510	31	0	
5	0	0	0	0	0	512	509	509	32	0	
6	0	0	0	0	0	513	510	512	31	0	
7	0	0	0	0	0	515	510	508	31	0	
8	0	0	0	0	2	516	510	509	31	0	
9	0	0	0	0	0	515	509	511	32	0	
10	0	0	0	0	0	513	510	509	31	0	
11	0	0	0	0	0	515	512	510	32	0	
12	0	0	0	0	0	514	512	512	32	0	
13	0	0	0	0	0	513	510	513	31	0	
14	0	0	0	0	0	513	510	511	31	0	
15	0	0	0	0	0	515	509	510	31	0	
0	0	0	0	0	1	515	508	509	31	0	
1	0	0	0	0	0	513	510	510	31	0	
2	0	0	0	0	0	512	509	511	32	0	
3	0	0	0	0	0	513	510	511	32	0	
4	0	0	0	0	0	513	510	513	32	0	
5	0	0	0	0	0	513	510	512	31	0	
6	0	0	0	0	0	513	511	510	32	0	
7	0	0	0	0	0	516	510	509	31	0	
8	0	0	0	0	1	514	511	511	31	0	
9	0	0	0	0	0	513	507	514	32	0	
10	0	0	0	0	0	513	507	511	32	0	
11	0	0	0	0	0	513	508	511	31	0	
12	0	0	0	0	0	512	507	510	32	0	
13	0	0	0	0	0	515	511	512	31	0	
14	0	0	0	0	0	512	509	510	32	0	
15	0	0	0	0	0	513	512	510	31	0	
0	0	0	0	0	2	514	511	512	31	0	
1	0	0	0	0	0	514	509	512	31	0	
2	0	0	0	0	0	512	511	511	31	0	
3	0	0	0	0	0	513	508	512	32	0	
4	0	0	0	0	0	514	508	511	32	0	
5	0	0	0	0	0	515	508	511	31	0	
6	0	0	0	0	0	516	511	512	32	0	
7	0	0	0	0	0	514	511	512	32	0	
8	0	0	0	0	2	513	510	511	32	0	
9	0	0	0	0	0	512	512	515	32	0	
10	0	0	0	0	0	513	512	510	32	0	
11	0	0	0	0	0	515	511	509	31	0	
12	0	0	0	0	0	516	508	508	32	0	
13	0	0	0	0	0	515	508	512	31	0	
14	0	0	0	0	0	514	509	511	31	0	
15	0	0	0	0	0	514	510	511	32	0	
0	0	0	0	0	2	513	509	510	31	0	
1	0	0	0	0	0	514	510	511	31	0	
2	0	0	0	0	0	513	511	511	31	0	
3	0	0	0	0	0	513	508	513	31	0	
4	0	0	0	0	0	513	509	509	32	0	
5	0	0	0	0	0	515	510	509	32	0	
6	0	0	0	0	0	515	508	508	32	0	
7	0	0	0	0	0	513	512	513	32	0	
8	0	0	0	0	2	513	509	515	32	0	
9	0	0	0	0	0	514	508	512	31	0	
10	0	0	0	0	0	512	510	513	31	0	
11	0	0	0	0	0	513	510	512	31	0	
12	0	0	0	0	0	516	512	512	31	0	
13	0	0	0	0	0	512	509	508	31	0	
14	0	0	0	0	0	513	509	508	32	0	
15	0	0	0	0	0	510	510	510	31	0	
0	0	0	0	0	2	512	511	513	31	0	
1	0	0	0	0	0	515	513	512	32	0	
2	0	0	0	0	0	517	509	509	32	0	
3	0	0	0	0	0	514	509	510	31	0	
4	0	0	0	0	0	512	506	512	32	0	
5	0	0	0	0	0	512	511	512	32	0	
6	0	0	0	0	0	512	514	513	32	0	
7	0	0	0	0	0	512	507	513	32	0	
8	0	0	0	0	2	509	505	513	32	0	
9	0	0	0	0	0	512	511	512	31	0	
10	0	0	0	0	0	515	510	510	31	0	
11	0	0	0	0	0	515	511	511	32	0	
12	0	0	0	0	0	516	508	510	31	0	
13	0	0	0	0	0	515	507	511	31	0	
14	0	0	0	0	0	514	509	510	31	0	
15	0	0	0	0	0	515	509	513	32	0	
0	0	0	0	0	2	514	510	510	31	0	
1	0	0	0	0	0	515	510	511	31	0	
2	0	0	0	0	0	515	509	509	32	0	
3	0	0	0	0	0	518	508	509	31	0	
4	0	0	0	0	0	514	511	509	32	0	
5	0	0	0	0	0	512	511	509	31	0	
6	0	0	0	0	0	514	509	511	32	0	
7	0	0	0	0	0	511	510	512	32	0	
8	0	0	0	0	2	515	511	510	31	0	
9	0	0	0	0	0	512	509	511	31	0	
10	0	0	0	0	0	513	509	512	32	0	
11	0	0	0	0	0	513	512	512	32	0	
12	0	0	0	0	0	512	511	511	32	0	
13	0	0	0	0	0	515	509	510	32	0	
14	0	0	0	0	0	513	510	511	32	0	
15	0	0	0	0	0	513	508	510	31	0	
0	0	0	0	0	2	513	510	510	31	0	
1	0	0	0	0	0	514	510	513	32	0	
2	0	0	0	0	0	512	510	512	31	0	
3	0	0	0	0	0	513	511	510	31	0	
4	0	0	0	0	0	513	508	509	31	0	
5	0	0	0	0	0	514	508	509	32	0	
6	0	0	0	0	0	515	508	512	32	0	
7	0	0	0	0	0	516	511	513	32	0	
8	0	0	0	0	2	512	511	512	31	0	
9	0	0	0	0	0	515	507	512	31	0	
10	0	0	0	0	0	517	507	511	31	0	
11	0	0	0	0	0	515	513	511	32	0	
12	0	0	0	0	0	516	512	511	32	0	
13	0	0	0	0	0	513	508	512	32	0	
14	0	0	0	0	0	516	509	511	32	0	
15	0	0	0	0	0	515	508	511	32	0	
0	0	0	0	0	2	514	509	512	32	0	
1	0	0	0	0	0	513	511	512	32	0	
2	0	0	0	0	0	513	510	511	31	0	
3	0	0	0	0	0	513	512	511	31	0	
4	0	0	0	0	0	515	512	510	31	0	
5	0	0	0	0	0	514	510	510	31	0	
6	0	0	0	0	0	514	511	510	32	0	
7	0	0	0	0	0	513	507	511	32	0	
8	0	0	0	0	1	513	508	513	32	0	
9	0	0	0	0	0	513	510	510	32	0	
10	0	0	0	0	0	514	509	511	32	0	
11	0	0	0	0	0	515	508	512	32	0	
12	0	0	0	0	0	512	510	512	32	0	
13	0	0	0	0	0	512	510	512	32	0	
14	0	0	0	0	0	512	511	509	31	0	
15	0	0	0	0	0	512	510	510	31	0	
0	0	0	0	0	1	514	510	511	31	0	
1	0	0	0	0	0	514	509	512	31	0	
2	0	0	0	0	0	514	510	512	31	0	
3	0	0	0	0	0	514	509	511	31	0	
4	0	0	0	0	0	515	508	510	31	0	
5	0	0	0	0	0	514	510	511	32	0	
6	0	0	0	0	0	515	509	511	32	0	
7	0	0	0	0	0	513	508	512	32	0	
8	0	0	0	0	1	512	512	511	32	0	
9	0	0	0	0	0	514	510	511	32	0	
10	0	0	0	0	0	512	508	511	32	0	
11	0	0	0	0	0	515	510	515	32	0	
12	0	0	0	0	0	514	509	513	32	0	
13	0	0	0	0	0	513	509	511	32	0	
14	0	0	0	0	0	512	509	509	31	0	
15	0	0	0	0	0	513	510	512	32	0	
0	0	0	0	0	2	515	510	513	32	0	
1	0	0	0	0	0	513	510	511	32	0	
2	0	0	0	0	0	517	511	508	31	0	
3	0	0	0	0	0	513	508	511	31	0	
4	0	0	0	0	0	515	509	509	31	0	
5	0	0	0	0	0	515	510	510	31	0	
6	0	0	0	0	0	513	512	511	31	0	
7	0	0	0	0	0	514	512	511	31	0	
8	0	0	0	0	2	514	511	511	32	0	
9	0	0	0	0	0	512	509	512	32	0	
10	0	0	0	0	0	513	511	511	32	0	
11	0	0	0	0	0	513	507	512	31	0	
12	0	0	0	0	0	514	510	515	32	0	
13	0	0	0	0	0	516	510	512	31	0	
14	0	0	0	0	0	516	510	511	31	0	
15	0	0	0	0	0	516	512	508	31	0	
0	0	0	0	0	2	513	508	509	32	0	
1	0	0	0	0	0	517	509	511	32	0	
2	0	0	0	0	0	514	511	509	31	0	
3	0	0	0	0	0	513	513	512	31	0	
4	0	0	0	0	0	511	510	512	32	0	
5	0	0	0	0	0	514	509	511	31	0	
6	0	0	0	0	0	514	508	512	32	0	
7	0	0	0	0	0	513	509	511	32	0	
8	0	0	0	0	2	513	509	511	32	0	
9	0	0	0	0	0	513	511	510	32	0	
