# OpenSignals Text File Format. Version 1
# {"98:D3:51:FE:6E:5C": {"position": 0, "device": "bitalino_rev", "device name": "98:D3:51:FE:6E:5C", "device connection": "BTH98:D3:51:FE:6E:5C", "sampling rate": 1000, "resolution": [4, 1, 1, 1, 1, 10, 10, 10, 10, 6, 6], "firmware version": 1282, "comments": "", "keywords": "", "mode": 0, "sync interval": 2, "date": "2026-6-12", "time": "12:15:10.76", "channels": [1, 2, 3, 4, 5, 6], "sensor": ["RAW", "RAW", "RAW", "RAW", "RAW", "RAW"], "label": ["A1", "A2", "A3", "A4", "A5", "A6"], "column": ["nSeq", "I1", "I2", "O1", "O2", "A1", "A2", "A3", "A4", "A5", "A6"], "special": [{}, {}, {}, {}, {}, {}], "digital IO": [0, 0, 1, 1]}}
# EndOfHeader
0	0	0	0	0	0	515	510	503	31	0	
1	0	0	0	0	3	513	509	512	31	0	
2	0	0	0	0	0	513	510	513	32	0	
3	0	0	0	0	0	514	510	515	31	0	
4	0	0	0	0	0	514	511	520	31	0	
5	0	0	0	0	0	514	510	527	32	0	
6	0	0	0	0	0	514	510	523	32	0	
7	0	0	0	0	0	513	511	518	32	0	
8	0	0	0	0	0	513	511	513	32	0	
9	0	0	0	0	4	515	509	510	32	0	
10	0	0	0	0	0	514	508	504	32	0	
11	0	0	0	0	0	515	510	503	32	0	
12	0	0	0	0	0	515	510	498	32	0	
13	0	0	0	0	0	514	510	496	31	0	
14	0	0	0	0	0	512	509	493	31	0	
15	0	0	0	0	0	514	513	492	32	0	
0	0	0	0	0	0	513	511	496	32	0	
1	0	0	0	0	4	513	510	506	32	0	
2	0	0	0	0	0	514	508	511	31	0	
3	0	0	0	0	0	512	510	514	31	0	
4	0	0	0	0	0	516	508	519	31	0	
5	0	0	0	0	0	514	510	523	32	0	
6	0	0	0	0	0	513	509	526	31	0	
7	0	0	0	0	0	514	508	523	31	0	
8	0	0	0	0	1	512	508	521	31	0	
9	0	0	0	0	3	515	511	519	32	0	
10	0	0	0	0	0	512	510	513	31	0	
11	0	0	0	0	0	513	510	510	32	0	
12	0	0	0	0	0	512	509	504	32	0	
13	0	0	0	0	0	513	509	497	32	0	
14	0	0	0	0	0	512	508	496	32	0	
15	0	0	0	0	0	513	511	500	32	0	
0	0	0	0	0	0	514	511	496	31	0	
1	0	0	0	0	1	513	508	500	31	0	
2	0	0	0	0	0	513	509	506	31	0	
3	0	0	0	0	0	512	511	508	31	0	
4	0	0	0	0	0	515	511	517	32	0	
5	0	0	0	0	0	514	509	523	32	0	
6	0	0	0	0	0	513	511	522	32	0	
7	0	0	0	0	0	514	509	519	32	0	
8	0	0	0	0	0	515	507	517	32	0	
9	0	0	0	0	1	517	508	513	31	0	
10	0	0	0	0	0	516	508	515	31	0	
11	0	0	0	0	0	515	508	510	31	0	
12	0	0	0	0	0	513	510	504	32	0	
13	0	0	0	0	0	514	508	500	32	0	
14	0	0	0	0	0	514	510	496	32	0	
15	0	0	0	0	0	512	509	497	32	0	
0	0	0	0	0	0	514	511	494	32	0	
1	0	0	0	0	1	514	510	498	31	0	
2	0	0	0	0	0	513	508	497	31	0	
3	0	0	0	0	0	512	510	505	32	0	
4	0	0	0	0	0	514	509	509	32	0	
5	0	0	0	0	0	513	509	515	32	0	
6	0	0	0	0	0	513	510	524	32	0	
7	0	0	0	0	0	513	508	525	31	0	
8	0	0	0	0	0	515	509	526	32	0	
9	0	0	0	0	4	513	511	522	31	0	
10	0	0	0	0	0	513	510	519	32	0	
11	0	0	0	0	0	513	510	512	32	0	
12	0	0	0	0	0	515	511	508	32	0	
13	0	0	0	0	0	516	510	509	31	0	
14	0	0	0	0	0	515	510	506	31	0	
15	0	0	0	0	0	515	508	493	31	0	
0	0	0	0	0	1	515	508	496	31	0	
1	0	0	0	0	3	515	508	492	31	0	
2	0	0	0	0	0	512	507	497	31	0	
3	0	0	0	0	0	513	510	505	31	0	
4	0	0	0	0	0	513	510	508	31	0	
5	0	0	0	0	0	513	509	515	32	0	
6	0	0	0	0	0	513	510	516	32	0	
7	0	0	0	0	0	513	510	521	32	0	
8	0	0	0	0	1	513	511	525	32	0	
9	0	0	0	0	3	513	508	522	32	0	
10	0	0	0	0	0	514	508	522	32	0	
11	0	0	0	0	0	516	509	517	32	0	
12	0	0	0	0	0	513	512	512	32	0	
13	0	0	0	0	0	513	513	512	32	0	
14	0	0	0	0	0	513	510	507	32	0	
15	0	0	0	0	0	514	510	494	31	0	
0	0	0	0	0	0	512	510	494	32	0	
1	0	0	0	0	4	515	510	496	31	0	
2	0	0	0	0	0	513	509	502	31	0	
3	0	0	0	0	0	513	509	503	31	0	
4	0	0	0	0	0	514	510	505	31	0	
5	0	0	0	0	0	513	508	507	31	0	
6	0	0	0	0	0	515	508	509	31	0	
7	0	0	0	0	0	514	507	516	32	0	
8	0	0	0	0	0	514	509	521	32	0	
9	0	0	0	0	4	515	509	524	31	0	
10	0	0	0	0	0	514	508	520	32	0	
11	0	0	0	0	0	515	509	515	31	0	
12	0	0	0	0	0	515	510	515	31	0	
13	0	0	0	0	0	513	510	510	32	0	
14	0	0	0	0	0	514	510	507	32	0	
15	0	0	0	0	0	513	509	503	32	0	
0	0	0	0	0	0	512	511	500	32	0	
1	0	0	0	0	4	512	511	499	32	0	
2	0	0	0	0	0	512	509	496	31	0	
3	0	0	0	0	0	513	511	497	32	0	
4	0	0	0	0	0	514	511	502	31	0	
5	0	0	0	0	0	514	509	511	31	0	
6	0	0	0	0	0	513	509	519	31	0	
7	0	0	0	0	0	514	510	520	32	0	
8	0	0	0	0	0	513	510	521	31	0	
9	0	0	0	0	3	516	507	523	31	0	
10	0	0	0	0	0	515	509	524	31	0	
11	0	0	0	0	0	515	510	523	32	0	
12	0	0	0	0	0	515	510	518	32	0	
13	0	0	0	0	0	514	510	518	32	0	
14	0	0	0	0	0	513	511	511	32	0	
15	0	0	0	0	0	515	512	511	32	0	
0	0	0	0	0	1	512	509	503	31	0	
1	0	0	0	0	3	513	510	496	31	0	
2	0	0	0	0	0	513	508	499	31	0	
3	0	0	0	0	0	511	509	497	31	0	
4	0	0	0	0	0	513	509	500	32	0	
5	0	0	0	0	0	512	509	507	32	0	
6	0	0	0	0	0	514	509	504	32	0	
7	0	0	0	0	0	513	511	511	31	0	
8	0	0	0	0	1	514	511	515	32	0	
9	0	0	0	0	4	514	511	526	31	0	
10	0	0	0	0	0	517	510	530	31	0	
11	0	0	0	0	0	515	511	524	32	0	
12	0	0	0	0	0	515	510	526	32	0	
13	0	0	0	0	0	515	510	517	32	0	
14	0	0	0	0	0	515	509	512	32	0	
15	0	0	0	0	0	512	509	510	32	0	
0	0	0	0	0	0	515	508	504	32	0	
1	0	0	0	0	3	514	508	501	31	0	
2	0	0	0	0	0	512	508	503	32	0	
3	0	0	0	0	0	512	510	504	32	0	
4	0	0	0	0	0	512	510	504	32	0	
5	0	0	0	0	0	514	512	501	31	0	
6	0	0	0	0	0	514	511	508	31	0	
7	0	0	0	0	0	515	512	511	32	0	
8	0	0	0	0	0	515	508	512	31	0	
9	0	0	0	0	4	513	508	520	31	0	
10	0	0	0	0	0	514	511	529	31	0	
11	0	0	0	0	0	514	511	521	31	0	
12	0	0	0	0	0	514	511	524	31	0	
13	0	0	0	0	0	515	510	521	32	0	
14	0	0	0	0	0	514	511	516	31	0	
15	0	0	0	0	0	513	510	512	32	0	
0	0	0	0	0	0	515	505	513	32	0	
1	0	0	0	0	2	513	508	507	32	0	
2	0	0	0	0	0	514	511	502	32	0	
3	0	0	0	0	0	515	510	497	32	0	
4	0	0	0	0	0	510	508	492	31	0	
5	0	0	0	0	0	513	510	492	31	0	
6	0	0	0	0	0	513	510	501	32	0	
7	0	0	0	0	0	512	512	509	32	0	
8	0	0	0	0	0	514	512	519	32	0	
9	0	0	0	0	2	516	510	521	31	0	
10	0	0	0	0	0	513	510	526	32	0	
11	0	0	0	0	0	512	509	532	32	0	
12	0	0	0	0	0	515	509	524	31	0	
13	0	0	0	0	0	513	510	522	31	0	
14	0	0	0	0	0	513	508	519	31	0	
15	0	0	0	0	0	514	508	512	31	0	
0	0	0	0	0	1	515	508	507	31	0	
1	0	0	0	0	3	512	509	507	31	0	
2	0	0	0	0	0	513	512	504	32	0	
3	0	0	0	0	0	515	511	499	32	0	
4	0	0	0	0	0	514	511	497	32	0	
5	0	0	0	0	0	514	512	496	31	0	
6	0	0	0	0	0	513	509	502	31	0	
7	0	0	0	0	0	513	510	506	32	0	
8	0	0	0	0	0	515	507	508	31	0	
9	0	0	0	0	3	514	508	509	31	0	
10	0	0	0	0	0	515	508	517	32	0	
11	0	0	0	0	0	514	510	528	32	0	
12	0	0	0	0	0	513	510	528	32	0	
13	0	0	0	0	0	513	509	524	32	0	
14	0	0	0	0	0	515	510	524	31	0	
15	0	0	0	0	0	516	507	515	32	0	
0	0	0	0	0	1	515	508	509	32	0	
1	0	0	0	0	4	514	510	509	31	0	
2	0	0	0	0	0	513	511	505	32	0	
3	0	0	0	0	0	513	510	493	32	0	
4	0	0	0	0	0	512	513	496	32	0	
5	0	0	0	0	0	514	510	499	32	0	
6	0	0	0	0	0	514	508	496	32	0	
7	0	0	0	0	0	514	509	503	32	0	
8	0	0	0	0	0	512	510	504	32	0	
9	0	0	0	0	4	513	508	506	31	0	
10	0	0	0	0	0	515	509	511	31	0	
11	0	0	0	0	0	515	510	519	31	0	
12	0	0	0	0	0	514	508	524	31	0	
13	0	0	0	0	0	513	507	524	31	0	
14	0	0	0	0	0	514	510	525	32	0	
15	0	0	0	0	0	514	511	522	32	0	
0	0	0	0	0	1	516	510	518	32	0	
1	0	0	0	0	3	516	510	511	32	0	
2	0	0	0	0	0	513	511	510	31	0	
3	0	0	0	0	0	512	509	501	31	0	
4	0	0	0	0	0	514	509	496	31	0	
5	0	0	0	0	0	513	509	493	32	0	
6	0	0	0	0	0	514	508	491	31	0	
7	0	0	0	0	0	515	507	493	32	0	
8	0	0	0	0	0	512	509	506	32	0	
9	0	0	0	0	3	514	511	506	31	0	
10	0	0	0	0	0	513	510	508	31	0	
11	0	0	0	0	0	513	510	513	32	0	
12	0	0	0	0	0	513	511	517	31	0	
13	0	0	0	0	0	514	512	518	32	0	
14	0	0	0	0	0	514	510	525	31	0	
15	0	0	0	0	0	513	511	525	31	0	
0	0	0	0	0	0	515	512	513	31	0	
1	0	0	0	0	4	514	511	510	31	0	
2	0	0	0	0	0	515	512	505	32	0	
3	0	0	0	0	0	513	510	504	32	0	
4	0	0	0	0	0	512	508	502	32	0	
5	0	0	0	0	0	512	508	496	32	0	
6	0	0	0	0	0	514	511	497	31	0	
7	0	0	0	0	0	513	509	500	32	0	
8	0	0	0	0	0	513	511	503	32	0	
9	0	0	0	0	4	512	511	504	32	0	
10	0	0	0	0	0	514	511	508	32	0	
11	0	0	0	0	0	515	511	511	32	0	
12	0	0	0	0	0	516	511	521	32	0	
13	0	0	0	0	0	516	511	526	32	0	
14	0	0	0	0	0	514	511	531	32	0	
15	0	0	0	0	0	515	511	527	32	0	
0	0	0	0	0	0	515	509	520	32	0	
1	0	0	0	0	3	514	510	518	32	0	
2	0	0	0	0	0	515	508	512	32	0	
3	0	0	0	0	0	514	509	513	31	0	
4	0	0	0	0	0	515	509	509	32	0	
5	0	0	0	0	0	514	507	505	32	0	
6	0	0	0	0	0	513	509	495	32	0	
7	0	0	0	0	0	515	510	497	32	0	
8	0	0	0	0	1	513	510	497	31	0	
9	0	0	0	0	3	513	508	504	31	0	
10	0	0	0	0	0	513	509	506	31	0	
11	0	0	0	0	0	512	508	507	32	0	
12	0	0	0	0	0	514	508	513	31	0	
13	0	0	0	0	0	514	506	517	31	0	
14	0	0	0	0	0	513	508	517	31	0	
15	0	0	0	0	0	513	507	518	31	0	
0	0	0	0	0	0	513	510	513	31	0	
1	0	0	0	0	4	515	508	510	31	0	
2	0	0	0	0	0	512	508	513	31	0	
3	0	0	0	0	0	511	509	509	31	0	
4	0	0	0	0	0	513	509	506	31	0	
5	0	0	0	0	0	513	512	499	32	0	
6	0	0	0	0	0	514	511	492	32	0	
7	0	0	0	0	0	515	508	488	31	0	
8	0	0	0	0	0	513	508	487	31	0	
9	0	0	0	0	1	512	509	495	31	0	
10	0	0	0	0	0	512	508	504	31	0	
11	0	0	0	0	0	513	508	511	31	0	
12	0	0	0	0	0	515	509	516	32	0	
13	0	0	0	0	0	513	511	514	32	0	
14	0	0	0	0	0	513	511	521	32	0	
15	0	0	0	0	0	512	511	518	32	0	
0	0	0	0	0	0	513	512	525	32	0	
1	0	0	0	0	1	513	510	525	32	0	
2	0	0	0	0	0	514	513	520	32	0	
3	0	0	0	0	0	514	513	513	32	0	
4	0	0	0	0	0	513	511	512	32	0	
5	0	0	0	0	0	513	510	508	32	0	
6	0	0	0	0	0	515	511	500	32	0	
7	0	0	0	0	0	516	512	492	32	0	
8	0	0	0	0	0	514	510	494	32	0	
9	0	0	0	0	1	513	511	494	32	0	
10	0	0	0	0	0	514	510	500	32	0	
11	0	0	0	0	0	515	511	506	32	0	
12	0	0	0	0	0	517	509	503	32	0	
13	0	0	0	0	0	515	510	509	32	0	
14	0	0	0	0	0	515	509	517	32	0	
15	0	0	0	0	0	514	511	521	32	0	
0	0	0	0	0	1	514	510	524	32	0	
1	0	0	0	0	3	516	509	525	31	0	
2	0	0	0	0	0	516	508	519	31	0	
3	0	0	0	0	0	515	509	517	31	0	
4	0	0	0	0	0	515	511	517	32	0	
5	0	0	0	0	0	513	509	512	32	0	
6	0	0	0	0	0	512	510	499	31	0	
7	0	0	0	0	0	512	511	502	32	0	
8	0	0	0	0	1	514	511	495	32	0	
9	0	0	0	0	4	514	510	499	32	0	
10	0	0	0	0	0	513	511	498	32	0	
11	0	0	0	0	0	512	508	498	31	0	
12	0	0	0	0	0	512	510	503	31	0	
13	0	0	0	0	0	515	510	507	31	0	
14	0	0	0	0	0	514	510	511	32	0	
15	0	0	0	0	0	513	510	519	31	0	
0	0	0	0	0	1	515	509	523	31	0	
1	0	0	0	0	3	513	510	516	31	0	
2	0	0	0	0	0	515	509	521	31	0	
3	0	0	0	0	0	514	510	522	31	0	
4	0	0	0	0	0	514	512	518	32	0	
5	0	0	0	0	0	513	510	517	31	0	
6	0	0	0	0	0	514	508	504	31	0	
7	0	0	0	0	0	514	507	496	32	0	
8	0	0	0	0	1	514	508	496	31	0	
9	0	0	0	0	4	513	508	493	31	0	
10	0	0	0	0	0	513	509	494	31	0	
11	0	0	0	0	0	514	508	497	32	0	
12	0	0	0	0	0	513	509	499	32	0	
13	0	0	0	0	0	512	513	507	32	0	
14	0	0	0	0	0	513	512	510	32	0	
15	0	0	0	0	0	512	511	512	31	0	
0	0	0	0	0	1	513	511	516	32	0	
1	0	0	0	0	3	514	511	519	31	0	
2	0	0	0	0	0	514	514	523	31	0	
3	0	0	0	0	0	515	511	519	32	0	
4	0	0	0	0	0	515	510	518	32	0	
5	0	0	0	0	0	514	508	508	32	0	
6	0	0	0	0	0	514	509	505	31	0	
7	0	0	0	0	0	515	508	508	31	0	
8	0	0	0	0	1	513	509	506	31	0	
9	0	0	0	0	3	513	509	502	31	0	
10	0	0	0	0	0	513	508	494	31	0	
11	0	0	0	0	0	514	509	497	32	0	
12	0	0	0	0	0	514	509	502	32	0	
13	0	0	0	0	0	514	510	508	32	0	
14	0	0	0	0	0	513	511	507	32	0	
15	0	0	0	0	0	514	510	511	32	0	
0	0	0	0	0	0	512	510	518	31	0	
1	0	0	0	0	3	512	509	523	31	0	
2	0	0	0	0	0	514	509	527	32	0	
3	0	0	0	0	0	514	508	526	32	0	
4	0	0	0	0	0	515	508	524	32	0	
5	0	0	0	0	0	513	509	521	32	0	
6	0	0	0	0	0	516	512	515	32	0	
7	0	0	0	0	0	513	508	511	31	0	
8	0	0	0	0	0	513	510	503	31	0	
9	0	0	0	0	4	513	510	503	31	0	
10	0	0	0	0	0	516	510	499	31	0	
11	0	0	0	0	0	513	511	504	32	0	
12	0	0	0	0	0	513	511	504	32	0	
13	0	0	0	0	0	514	511	503	32	0	
14	0	0	0	0	0	513	511	507	31	0	
15	0	0	0	0	0	512	510	507	31	0	
0	0	0	0	0	0	514	510	516	31	0	
1	0	0	0	0	4	514	511	523	31	0	
2	0	0	0	0	0	512	510	522	32	0	
3	0	0	0	0	0	513	508	525	32	0	
4	0	0	0	0	0	514	509	523	32	0	
5	0	0	0	0	0	515	511	521	32	0	
6	0	0	0	0	0	515	508	514	31	0	
7	0	0	0	0	0	512	508	513	31	0	
8	0	0	0	0	1	513	509	503	31	0	
9	0	0	0	0	4	515	509	499	31	0	
10	0	0	0	0	0	513	510	494	32	0	
11	0	0	0	0	0	513	509	492	31	0	
12	0	0	0	0	0	515	507	489	32	0	
13	0	0	0	0	0	515	510	500	32	0	
14	0	0	0	0	0	515	510	500	31	0	
15	0	0	0	0	0	512	509	510	31	0	
0	0	0	0	0	1	513	511	512	31	0	
1	0	0	0	0	3	512	510	518	32	0	
2	0	0	0	0	0	515	512	524	31	0	
3	0	0	0	0	0	515	509	528	32	0	
4	0	0	0	0	0	515	510	532	32	0	
5	0	0	0	0	0	513	508	531	32	0	
6	0	0	0	0	0	513	508	523	31	0	
7	0	0	0	0	0	515	511	514	32	0	
8	0	0	0	0	0	514	511	515	32	0	
9	0	0	0	0	2	513	511	512	31	0	
10	0	0	0	0	0	513	510	506	31	0	
11	0	0	0	0	0	513	509	502	31	0	
12	0	0	0	0	0	513	512	499	32	0	
13	0	0	0	0	0	513	511	493	32	0	
14	0	0	0	0	0	516	509	501	31	0	
15	0	0	0	0	0	512	510	505	32	0	
0	0	0	0	0	0	514	508	512	32	0	
1	0	0	0	0	2	514	507	512	31	0	
2	0	0	0	0	0	516	510	519	31	0	
3	0	0	0	0	0	513	509	520	31	0	
4	0	0	0	0	0	513	510	522	31	0	
5	0	0	0	0	0	512	508	519	32	0	
6	0	0	0	0	0	512	512	524	32	0	
7	0	0	0	0	0	514	510	512	31	0	
8	0	0	0	0	0	515	510	510	32	0	
9	0	0	0	0	2	514	508	508	31	0	
10	0	0	0	0	0	516	511	499	32	0	
11	0	0	0	0	0	513	509	493	32	0	
12	0	0	0	0	0	513	509	490	32	0	
13	0	0	0	0	0	513	511	488	32	0	
14	0	0	0	0	0	514	510	495	31	0	
15	0	0	0	0	0	515	510	495	32	0	
0	0	0	0	0	1	513	511	502	31	0	
1	0	0	0	0	3	513	510	505	31	0	
2	0	0	0	0	0	514	509	508	31	0	
3	0	0	0	0	0	514	507	517	31	0	
4	0	0	0	0	0	513	510	522	31	0	
5	0	0	0	0	0	517	511	530	32	0	
6	0	0	0	0	0	515	508	525	32	0	
7	0	0	0	0	0	514	509	522	32	0	
8	0	0	0	0	1	515	510	518	32	0	
9	0	0	0	0	3	514	509	511	31	0	
10	0	0	0	0	0	514	511	510	31	0	
11	0	0	0	0	0	515	508	507	31	0	
12	0	0	0	0	0	512	509	503	31	0	
13	0	0	0	0	0	515	510	499	32	0	
14	0	0	0	0	0	514	508	492	31	0	
15	0	0	0	0	0	513	508	496	32	0	
0	0	0	0	0	0	513	510	504	32	0	
1	0	0	0	0	3	514	510	508	31	0	
2	0	0	0	0	0	514	510	511	32	0	
3	0	0	0	0	0	513	510	510	31	0	
4	0	0	0	0	0	513	510	521	31	0	
5	0	0	0	0	0	516	510	525	31	0	
6	0	0	0	0	0	513	511	527	32	0	
7	0	0	0	0	0	513	509	527	32	0	
8	0	0	0	0	0	514	510	524	32	0	
9	0	0	0	0	4	513	510	523	31	0	
10	0	0	0	0	0	513	510	517	32	0	
11	0	0	0	0	0	514	508	510	32	0	
12	0	0	0	0	0	512	509	504	32	0	
13	0	0	0	0	0	513	510	498	32	0	
14	0	0	0	0	0	513	509	496	31	0	
15	0	0	0	0	0	514	508	497	31	0	
0	0	0	0	0	0	515	510	503	32	0	
1	0	0	0	0	4	513	512	508	31	0	
2	0	0	0	0	0	513	512	510	32	0	
3	0	0	0	0	0	515	511	513	31	0	
4	0	0	0	0	0	514	511	513	31	0	
5	0	0	0	0	0	515	511	519	32	0	
6	0	0	0	0	0	514	511	524	32	0	
7	0	0	0	0	0	514	510	530	31	0	
8	0	0	0	0	0	514	509	523	31	0	
9	0	0	0	0	4	515	508	523	31	0	
10	0	0	0	0	0	514	508	518	32	0	
11	0	0	0	0	0	513	510	516	31	0	
12	0	0	0	0	0	514	510	507	32	0	
13	0	0	0	0	0	514	508	504	32	0	
14	0	0	0	0	0	512	509	497	32	0	
15	0	0	0	0	0	513	509	499	31	0	
0	0	0	0	0	1	512	510	502	32	0	
1	0	0	0	0	4	512	509	503	31	0	
2	0	0	0	0	0	514	508	502	32	0	
3	0	0	0	0	0	515	508	505	32	0	
4	0	0	0	0	0	513	508	509	32	0	
5	0	0	0	0	0	514	508	513	31	0	
6	0	0	0	0	0	513	511	518	32	0	
7	0	0	0	0	0	514	511	515	31	0	
8	0	0	0	0	0	515	510	515	32	0	
9	0	0	0	0	3	513	511	518	31	0	
10	0	0	0	0	0	513	510	511	32	0	
11	0	0	0	0	0	515	510	511	32	0	
12	0	0	0	0	0	513	507	512	31	0	
13	0	0	0	0	0	514	508	503	32	0	
14	0	0	0	0	0	515	511	495	32	0	
15	0	0	0	0	0	515	509	491	31	0	
0	0	0	0	0	1	515	507	492	31	0	
1	0	0	0	0	3	513	509	490	32	0	
2	0	0	0	0	0	512	511	498	31	0	
3	0	0	0	0	0	513	511	504	31	0	
4	0	0	0	0	0	514	510	506	31	0	
5	0	0	0	0	0	515	510	515	32	0	
6	0	0	0	0	0	515	509	523	31	0	
7	0	0	0	0	0	516	508	526	32	0	
8	0	0	0	0	1	515	510	524	31	0	
9	0	0	0	0	4	515	511	526	31	0	
10	0	0	0	0	0	513	510	514	31	0	
11	0	0	0	0	0	514	511	514	31	0	
12	0	0	0	0	0	515	510	512	32	0	
13	0	0	0	0	0	514	510	507	32	0	
14	0	0	0	0	0	513	510	499	32	0	
15	0	0	0	0	0	514	511	494	32	0	
0	0	0	0	0	0	514	509	494	31	0	
1	0	0	0	0	3	512	511	495	31	0	
2	0	0	0	0	0	515	510	494	31	0	
3	0	0	0	0	0	512	508	501	32	0	
4	0	0	0	0	0	513	509	505	31	0	
5	0	0	0	0	0	512	509	511	32	0	
6	0	0	0	0	0	512	509	515	31	0	
7	0	0	0	0	0	517	509	519	31	0	
8	0	0	0	0	0	512	508	529	31	0	
9	0	0	0	0	1	515	510	524	31	0	
10	0	0	0	0	0	513	509	523	32	0	
11	0	0	0	0	0	515	509	519	32	0	
12	0	0	0	0	0	514	509	517	32	0	
13	0	0	0	0	0	514	510	511	32	0	
14	0	0	0	0	0	513	512	505	32	0	
15	0	0	0	0	0	512	510	498	32	0	
0	0	0	0	0	0	512	509	494	32	0	
1	0	0	0	0	1	515	511	498	32	0	
2	0	0	0	0	0	514	508	494	32	0	
3	0	0	0	0	0	512	509	496	32	0	
4	0	0	0	0	0	513	508	504	32	0	
5	0	0	0	0	0	516	507	509	32	0	
6	0	0	0	0	0	511	512	511	32	0	
7	0	0	0	0	0	514	509	518	31	0	
8	0	0	0	0	1	515	508	522	31	0	
9	0	0	0	0	4	514	509	523	31	0	
10	0	0	0	0	0	516	510	516	32	0	
11	0	0	0	0	0	515	509	515	31	0	
12	0	0	0	0	0	513	508	512	32	0	
13	0	0	0	0	0	513	510	504	32	0	
14	0	0	0	0	0	512	509	507	31	0	
15	0	0	0	0	0	515	510	499	31	0	
0	0	0	0	0	1	514	508	498	31	0	
1	0	0	0	0	4	515	509	497	31	0	
2	0	0	0	0	0	513	509	497	32	0	
3	0	0	0	0	0	513	511	499	32	0	
4	0	0	0	0	0	515	511	507	32	0	
5	0	0	0	0	0	515	510	508	32	0	
6	0	0	0	0	0	512	510	513	32	0	
7	0	0	0	0	0	513	512	517	32	0	
8	0	0	0	0	1	513	512	517	32	0	
9	0	0	0	0	4	515	512	518	31	0	
10	0	0	0	0	0	514	511	526	32	0	
11	0	0	0	0	0	515	509	525	31	0	
12	0	0	0	0	0	511	510	520	31	0	
13	0	0	0	0	0	514	509	514	31	0	
14	0	0	0	0	0	513	509	511	32	0	
15	0	0	0	0	0	512	508	505	31	0	
0	0	0	0	0	1	513	509	500	32	0	
1	0	0	0	0	4	513	509	492	31	0	
2	0	0	0	0	0	512	510	491	32	0	
3	0	0	0	0	0	512	509	493	32	0	
4	0	0	0	0	0	514	512	497	32	0	
5	0	0	0	0	0	515	513	502	32	0	
6	0	0	0	0	0	513	511	505	32	0	
7	0	0	0	0	0	515	509	515	32	0	
8	0	0	0	0	0	514	510	514	32	0	
9	0	0	0	0	3	516	507	516	31	0	
10	0	0	0	0	0	513	506	516	31	0	
11	0	0	0	0	0	513	510	519	31	0	
12	0	0	0	0	0	514	511	521	31	0	
13	0	0	0	0	0	513	513	514	32	0	
14	0	0	0	0	0	515	510	508	31	0	
15	0	0	0	0	0	513	508	504	32	0	
0	0	0	0	0	1	516	510	504	32	0	
1	0	0	0	0	3	516	508	493	31	0	
2	0	0	0	0	0	511	508	493	31	0	
3	0	0	0	0	0	513	510	496	32	0	
4	0	0	0	0	0	512	508	497	31	0	
5	0	0	0	0	0	512	510	495	31	0	
6	0	0	0	0	0	512	511	499	31	0	
7	0	0	0	0	0	514	510	507	31	0	
8	0	0	0	0	0	514	508	518	32	0	
9	0	0	0	0	4	514	505	529	32	0	
10	0	0	0	0	0	516	506	528	32	0	
11	0	0	0	0	0	514	510	524	32	0	
12	0	0	0	0	0	515	511	526	32	0	
13	0	0	0	0	0	515	512	524	32	0	
14	0	0	0	0	0	516	511	518	32	0	
15	0	0	0	0	0	514	510	512	32	0	
0	0	0	0	0	0	510	510	508	31	0	
1	0	0	0	0	4	513	510	506	31	0	
2	0	0	0	0	0	513	512	503	32	0	
3	0	0	0	0	0	514	508	497	31	0	
4	0	0	0	0	0	513	511	496	31	0	
5	0	0	0	0	0	513	511	496	31	0	
6	0	0	0	0	0	512	508	495	31	0	
7	0	0	0	0	0	513	511	502	31	0	
8	0	0	0	0	1	513	510	511	32	0	
9	0	0	0	0	3	515	509	510	32	0	
10	0	0	0	0	0	515	508	519	32	0	
11	0	0	0	0	0	514	510	529	32	0	
12	0	0	0	0	0	514	509	527	32	0	
13	0	0	0	0	0	516	510	527	32	0	
14	0	0	0	0	0	512	509	522	32	0	
15	0	0	0	0	0	513	511	516	32	0	
0	0	0	0	0	1	514	510	513	31	0	
1	0	0	0	0	4	513	510	506	31	0	
2	0	0	0	0	0	512	510	498	32	0	
3	0	0	0	0	0	515	507	497	31	0	
4	0	0	0	0	0	515	509	498	31	0	
5	0	0	0	0	0	515	510	498	31	0	
6	0	0	0	0	0	511	509	502	32	0	
7	0	0	0	0	0	514	509	508	31	0	
8	0	0	0	0	0	517	507	506	31	0	
9	0	0	0	0	3	512	509	514	31	0	
10	0	0	0	0	0	512	508	519	31	0	
11	0	0	0	0	0	514	510	526	32	0	
12	0	0	0	0	0	516	509	523	32	0	
13	0	0	0	0	0	515	509	523	32	0	
14	0	0	0	0	0	515	512	521	32	0	
15	0	0	0	0	0	514	513	513	31	0	
0	0	0	0	0	0	513	511	516	32	0	
1	0	0	0	0	2	514	510	514	31	0	
2	0	0	0	0	0	515	510	504	31	0	
3	0	0	0	0	0	515	511	501	31	0	
4	0	0	0	0	0	512	513	498	31	0	
5	0	0	0	0	0	515	512	494	32	0	
6	0	0	0	0	0	512	512	495	31	0	
7	0	0	0	0	0	514	510	498	31	0	
8	0	0	0	0	0	512	508	505	32	0	
9	0	0	0	0	2	513	508	515	31	0	
10	0	0	0	0	0	516	509	518	31	0	
11	0	0	0	0	0	513	507	528	32	0	
12	0	0	0	0	0	515	508	526	32	0	
13	0	0	0	0	0	513	509	526	32	0	
14	0	0	0	0	0	513	508	529	32	0	
15	0	0	0	0	0	515	511	526	32	0	
0	0	0	0	0	0	516	511	521	32	0	
1	0	0	0	0	2	516	511	514	31	0	
2	0	0	0	0	0	513	507	511	31	0	
3	0	0	0	0	0	512	510	506	31	0	
4	0	0	0	0	0	511	508	505	32	0	
5	0	0	0	0	0	510	508	502	32	0	
6	0	0	0	0	0	516	509	499	31	0	
7	0	0	0	0	0	510	509	500	32	0	
8	0	0	0	0	0	512	511	505	32	0	
9	0	0	0	0	3	513	513	509	31	0	
10	0	0	0	0	0	514	511	514	31	0	
11	0	0	0	0	0	516	510	515	32	0	
12	0	0	0	0	0	514	507	519	31	0	
13	0	0	0	0	0	513	507	525	32	0	
14	0	0	0	0	0	516	510	530	32	0	
15	0	0	0	0	0	514	511	529	32	0	
0	0	0	0	0	0	515	510	519	32	0	
1	0	0	0	0	4	515	511	519	32	0	
2	0	0	0	0	0	516	510	513	32	0	
3	0	0	0	0	0	515	510	508	32	0	
4	0	0	0	0	0	516	510	505	32	0	
5	0	0	0	0	0	515	511	496	32	0	
6	0	0	0	0	0	513	511	496	31	0	
7	0	0	0	0	0	516	511	494	31	0	
8	0	0	0	0	1	512	511	496	31	0	
9	0	0	0	0	4	512	510	510	31	0	
10	0	0	0	0	0	512	509	512	32	0	
11	0	0	0	0	0	512	510	511	31	0	
12	0	0	0	0	0	513	510	514	31	0	
13	0	0	0	0	0	512	509	526	32	0	
14	0	0	0	0	0	512	510	527	32	0	
15	0	0	0	0	0	513	511	527	32	0	
0	0	0	0	0	0	513	511	523	32	0	
1	0	0	0	0	4	513	509	520	31	0	
2	0	0	0	0	0	515	511	516	31	0	
3	0	0	0	0	0	514	511	514	31	0	
4	0	0	0	0	0	514	511	510	31	0	
5	0	0	0	0	0	514	511	502	32	0	
6	0	0	0	0	0	513	510	504	32	0	
7	0	0	0	0	0	513	510	500	32	0	
8	0	0	0	0	1	515	507	502	32	0	
9	0	0	0	0	4	516	509	500	32	0	
10	0	0	0	0	0	515	510	501	32	0	
11	0	0	0	0	0	516	507	509	32	0	
12	0	0	0	0	0	515	510	513	32	0	
13	0	0	0	0	0	513	511	521	32	0	
14	0	0	0	0	0	514	512	522	31	0	
15	0	0	0	0	0	513	508	524	31	0	
0	0	0	0	0	0	512	511	519	31	0	
1	0	0	0	0	4	515	511	519	31	0	
2	0	0	0	0	0	516	508	514	31	0	
3	0	0	0	0	0	515	509	515	32	0	
4	0	0	0	0	0	512	507	515	32	0	
5	0	0	0	0	0	513	507	507	32	0	
6	0	0	0	0	0	511	509	497	31	0	
7	0	0	0	0	0	513	511	493	32	0	
8	0	0	0	0	0	514	511	492	31	0	
9	0	0	0	0	4	513	512	492	31	0	
10	0	0	0	0	0	513	512	501	31	0	
11	0	0	0	0	0	514	510	502	32	0	
12	0	0	0	0	0	513	509	503	31	0	
13	0	0	0	0	0	514	509	511	32	0	
14	0	0	0	0	0	512	512	517	32	0	
15	0	0	0	0	0	514	511	520	32	0	
0	0	0	0	0	0	515	507	519	31	0	
1	0	0	0	0	4	515	510	515	31	0	
2	0	0	0	0	0	515	509	515	31	0	
3	0	0	0	0	0	514	510	509	32	0	
4	0	0	0	0	0	515	509	509	31	0	
5	0	0	0	0	0	515	509	513	32	0	
6	0	0	0	0	0	512	507	505	32	0	
7	0	0	0	0	0	512	507	495	32	0	
8	0	0	0	0	1	512	505	497	32	0	
9	0	0	0	0	4	514	505	502	32	0	
10	0	0	0	0	0	515	508	498	32	0	
11	0	0	0	0	0	515	508	502	31	0	
12	0	0	0	0	0	514	511	509	31	0	
13	0	0	0	0	0	513	511	515	31	0	
14	0	0	0	0	0	514	513	521	31	0	
15	0	0	0	0	0	514	512	525	31	0	
0	0	0	0	0	1	512	512	522	32	0	
1	0	0	0	0	3	515	511	520	31	0	
2	0	0	0	0	0	515	511	521	32	0	
3	0	0	0	0	0	515	510	514	31	0	
4	0	0	0	0	0	515	509	515	32	0	
5	0	0	0	0	0	511	509	513	32	0	
6	0	0	0	0	0	515	511	507	31	0	
7	0	0	0	0	0	515	512	502	32	0	
8	0	0	0	0	1	516	510	496	32	0	
9	0	0	0	0	4	515	510	497	31	0	
10	0	0	0	0	0	516	509	500	31	0	
11	0	0	0	0	0	514	508	501	32	0	
12	0	0	0	0	0	512	508	507	32	0	
13	0	0	0	0	0	512	509	511	32	0	
14	0	0	0	0	0	513	508	514	32	0	
15	0	0	0	0	0	512	508	519	32	0	
0	0	0	0	0	0	515	509	522	32	0	
1	0	0	0	0	1	516	510	523	31	0	
2	0	0	0	0	0	515	510	522	31	0	
3	0	0	0	0	0	515	513	519	31	0	
4	0	0	0	0	0	513	510	513	31	0	
5	0	0	0	0	0	513	508	506	31	0	
6	0	0	0	0	0	513	510	507	31	0	
7	0	0	0	0	0	513	510	508	32	0	
8	0	0	0	0	0	513	510	506	32	0	
9	0	0	0	0	1	513	511	505	32	0	
10	0	0	0	0	0	514	509	497	31	0	
11	0	0	0	0	0	511	508	496	31	0	
12	0	0	0	0	0	512	509	502	31	0	
13	0	0	0	0	0	512	510	509	32	0	
14	0	0	0	0	0	515	510	512	31	0	
15	0	0	0	0	0	517	509	507	31	0	
0	0	0	0	0	0	513	512	514	31	0	
1	0	0	0	0	1	514	508	520	31	0	
2	0	0	0	0	0	513	508	523	31	0	
3	0	0	0	0	0	512	508	526	32	0	
4	0	0	0	0	0	514	510	517	32	0	
5	0	0	0	0	0	515	510	514	32	0	
6	0	0	0	0	0	512	509	509	32	0	
7	0	0	0	0	0	513	509	507	32	0	
8	0	0	0	0	1	515	509	503	32	0	
9	0	0	0	0	3	515	508	496	31	0	
10	0	0	0	0	0	518	510	496	31	0	
11	0	0	0	0	0	515	509	490	31	0	
12	0	0	0	0	0	516	510	494	31	0	
13	0	0	0	0	0	516	512	503	32	0	
14	0	0	0	0	0	515	508	500	32	0	
15	0	0	0	0	0	515	510	504	31	0	
0	0	0	0	0	0	510	509	510	31	0	
1	0	0	0	0	4	511	507	518	31	0	
2	0	0	0	0	0	508	509	527	32	0	
3	0	0	0	0	0	508	509	524	32	0	
4	0	0	0	0	0	513	509	525	32	0	
5	0	0	0	0	0	515	510	520	31	0	
6	0	0	0	0	0	517	512	507	31	0	
7	0	0	0	0	0	512	510	508	31	0	
8	0	0	0	0	0	517	511	507	32	0	
9	0	0	0	0	3	513	510	502	32	0	
10	0	0	0	0	0	514	512	490	31	0	
11	0	0	0	0	0	515	509	490	31	0	
12	0	0	0	0	0	515	511	492	31	0	
13	0	0	0	0	0	515	512	495	32	0	
14	0	0	0	0	0	513	512	503	32	0	
15	0	0	0	0	0	514	510	505	32	0	
0	0	0	0	0	1	516	511	508	32	0	
1	0	0	0	0	4	515	510	515	31	0	
2	0	0	0	0	0	513	511	519	31	0	
3	0	0	0	0	0	510	509	524	31	0	
4	0	0	0	0	0	512	509	526	32	0	
5	0	0	0	0	0	513	509	528	32	0	
6	0	0	0	0	0	513	507	518	32	0	
7	0	0	0	0	0	511	509	510	32	0	
8	0	0	0	0	1	513	508	516	32	0	
9	0	0	0	0	4	512	508	509	32	0	
10	0	0	0	0	0	516	509	499	31	0	
11	0	0	0	0	0	516	510	494	31	0	
12	0	0	0	0	0	516	510	496	32	0	
13	0	0	0	0	0	518	512	494	31	0	
14	0	0	0	0	0	515	509	500	31	0	
15	0	0	0	0	0	513	508	504	31	0	
0	0	0	0	0	1	513	508	509	32	0	
1	0	0	0	0	3	512	509	508	31	0	
2	0	0	0	0	0	512	512	520	31	0	
3	0	0	0	0	0	513	514	527	31	0	
4	0	0	0	0	0	513	512	531	31	0	
5	0	0	0	0	0	512	510	531	32	0	
6	0	0	0	0	0	515	512	522	32	0	
7	0	0	0	0	0	512	510	518	32	0	
8	0	0	0	0	0	515	510	512	32	0	
9	0	0	0	0	3	513	508	515	31	0	
10	0	0	0	0	0	515	508	508	32	0	
11	0	0	0	0	0	515	507	501	32	0	
12	0	0	0	0	0	513	510	504	32	0	
13	0	0	0	0	0	512	510	504	31	0	
14	0	0	0	0	0	513	510	502	31	0	
15	0	0	0	0	0	515	511	502	31	0	
0	0	0	0	0	0	516	510	496	31	0	
1	0	0	0	0	4	516	506	504	32	0	
2	0	0	0	0	0	516	507	515	32	0	
3	0	0	0	0	0	513	507	522	32	0	
4	0	0	0	0	0	512	509	527	32	0	
5	0	0	0	0	0	516	508	520	32	0	
6	0	0	0	0	0	515	510	517	32	0	
7	0	0	0	0	0	513	512	511	31	0	
8	0	0	0	0	1	509	512	518	31	0	
9	0	0	0	0	4	511	510	512	31	0	
10	0	0	0	0	0	514	508	504	32	0	
11	0	0	0	0	0	515	509	504	32	0	
12	0	0	0	0	0	513	509	499	32	0	
13	0	0	0	0	0	513	511	499	32	0	
14	0	0	0	0	0	513	511	501	31	0	
15	0	0	0	0	0	512	511	499	31	0	
0	0	0	0	0	0	512	511	504	32	0	
1	0	0	0	0	4	513	512	510	31	0	
2	0	0	0	0	0	512	510	508	31	0	
3	0	0	0	0	0	515	511	516	32	0	
4	0	0	0	0	0	514	510	519	32	0	
5	0	0	0	0	0	513	511	524	32	0	
6	0	0	0	0	0	515	510	523	32	0	
7	0	0	0	0	0	517	512	523	32	0	
8	0	0	0	0	1	515	511	514	32	0	
9	0	0	0	0	2	513	509	510	31	0	
10	0	0	0	0	0	516	510	509	31	0	
11	0	0	0	0	0	515	510	501	31	0	
12	0	0	0	0	0	515	511	498	31	0	
13	0	0	0	0	0	511	510	495	31	0	
14	0	0	0	0	0	513	508	496	32	0	
15	0	0	0	0	0	510	509	497	32	0	
0	0	0	0	0	0	511	510	499	32	0	
1	0	0	0	0	2	511	507	507	31	0	
2	0	0	0	0	0	513	508	505	31	0	
3	0	0	0	0	0	516	509	512	32	0	
4	0	0	0	0	0	516	508	519	32	0	
5	0	0	0	0	0	515	510	514	32	0	
6	0	0	0	0	0	515	508	521	32	0	
7	0	0	0	0	0	516	509	524	31	0	
8	0	0	0	0	0	516	512	514	32	0	
9	0	0	0	0	2	516	511	512	31	0	
10	0	0	0	0	0	515	510	510	32	0	
11	0	0	0	0	0	515	510	507	32	0	
12	0	0	0	0	0	514	509	504	32	0	
13	0	0	0	0	0	513	508	496	32	0	
14	0	0	0	0	0	512	511	499	31	0	
15	0	0	0	0	0	513	512	495	32	0	
0	0	0	0	0	0	511	513	498	32	0	
1	0	0	0	0	4	512	510	507	31	0	
2	0	0	0	0	0	514	509	511	31	0	
3	0	0	0	0	0	513	509	513	31	0	
4	0	0	0	0	0	516	508	516	31	0	
5	0	0	0	0	0	513	508	521	32	0	
6	0	0	0	0	0	514	505	523	32	0	
7	0	0	0	0	0	515	509	519	32	0	
8	0	0	0	0	1	512	510	519	32	0	
9	0	0	0	0	3	514	511	516	31	0	
10	0	0	0	0	0	516	510	510	31	0	
11	0	0	0	0	0	516	511	513	31	0	
12	0	0	0	0	0	512	510	511	31	0	
13	0	0	0	0	0	513	512	506	32	0	
14	0	0	0	0	0	512	511	494	32	0	
15	0	0	0	0	0	512	511	493	32	0	
0	0	0	0	0	1	512	511	494	32	0	
1	0	0	0	0	3	513	511	502	32	0	
2	0	0	0	0	0	513	509	505	32	0	
3	0	0	0	0	0	514	509	507	31	0	
4	0	0	0	0	0	514	508	509	32	0	
5	0	0	0	0	0	517	509	511	31	0	
6	0	0	0	0	0	515	509	521	32	0	
7	0	0	0	0	0	512	507	522	32	0	
8	0	0	0	0	0	512	508	524	31	0	
9	0	0	0	0	3	513	509	521	32	0	
10	0	0	0	0	0	513	510	520	31	0	
11	0	0	0	0	0	512	509	513	32	0	
12	0	0	0	0	0	514	510	506	31	0	
13	0	0	0	0	0	514	508	505	32	0	
14	0	0	0	0	0	515	509	501	32	0	
15	0	0	0	0	0	513	511	497	32	0	
0	0	0	0	0	0	514	510	495	31	0	
1	0	0	0	0	4	514	511	497	31	0	
2	0	0	0	0	0	512	512	500	31	0	
3	0	0	0	0	0	514	510	507	32	0	
4	0	0	0	0	0	513	508	508	32	0	
5	0	0	0	0	0	512	507	515	32	0	
6	0	0	0	0	0	512	512	517	31	0	
7	0	0	0	0	0	515	509	519	32	0	
8	0	0	0	0	0	517	510	520	31	0	
9	0	0	0	0	4	515	511	523	31	0	
10	0	0	0	0	0	515	510	519	32	0	
11	0	0	0	0	0	512	509	516	32	0	
12	0	0	0	0	0	514	509	511	32	0	
13	0	0	0	0	0	515	510	514	32	0	
14	0	0	0	0	0	515	508	508	32	0	
15	0	0	0	0	0	516	511	498	31	0	
0	0	0	0	0	0	511	510	494	31	0	
1	0	0	0	0	3	512	511	496	31	0	
2	0	0	0	0	0	512	510	500	31	0	
3	0	0	0	0	0	513	510	506	31	0	
4	0	0	0	0	0	515	512	507	31	0	
5	0	0	0	0	0	515	509	507	32	0	
6	0	0	0	0	0	515	510	511	31	0	
7	0	0	0	0	0	515	512	516	31	0	
8	0	0	0	0	1	513	510	525	32	0	
9	0	0	0	0	3	514	505	521	31	0	
10	0	0	0	0	0	516	508	522	32	0	
11	0	0	0	0	0	513	509	515	32	0	
12	0	0	0	0	0	513	510	515	32	0	
13	0	0	0	0	0	513	509	515	31	0	
14	0	0	0	0	0	513	508	509	31	0	
15	0	0	0	0	0	513	511	505	31	0	
0	0	0	0	0	0	513	511	500	32	0	
1	0	0	0	0	3	515	512	498	32	0	
2	0	0	0	0	0	514	509	499	31	0	
3	0	0	0	0	0	513	509	499	31	0	
4	0	0	0	0	0	515	510	502	31	0	
5	0	0	0	0	0	515	510	504	32	0	
6	0	0	0	0	0	515	510	505	32	0	
7	0	0	0	0	0	511	508	515	31	0	
8	0	0	0	0	1	513	507	523	32	0	
9	0	0	0	0	4	514	509	524	32	0	
10	0	0	0	0	0	513	510	523	32	0	
11	0	0	0	0	0	513	509	522	32	0	
12	0	0	0	0	0	514	511	512	31	0	
13	0	0	0	0	0	512	510	514	32	0	
14	0	0	0	0	0	513	509	506	31	0	
15	0	0	0	0	0	513	510	506	31	0	
0	0	0	0	0	1	513	509	501	32	0	
1	0	0	0	0	4	513	510	497	31	0	
2	0	0	0	0	0	514	510	500	32	0	
3	0	0	0	0	0	515	508	494	32	0	
4	0	0	0	0	0	517	511	498	32	0	
5	0	0	0	0	0	515	509	501	31	0	
6	0	0	0	0	0	513	511	505	31	0	
7	0	0	0	0	0	514	509	513	32	0	
8	0	0	0	0	0	512	511	511	32	0	
9	0	0	0	0	1	513	509	520	32	0	
10	0	0	0	0	0	515	509	525	32	0	
11	0	0	0	0	0	515	508	527	32	0	
12	0	0	0	0	0	514	506	523	32	0	
13	0	0	0	0	0	512	510	509	32	0	
14	0	0	0	0	0	512	512	505	31	0	
15	0	0	0	0	0	512	510	505	31	0	
0	0	0	0	0	0	511	508	499	31	0	
1	0	0	0	0	1	515	508	500	32	0	
2	0	0	0	0	0	513	507	494	32	0	
3	0	0	0	0	0	513	509	499	32	0	
4	0	0	0	0	0	513	511	503	32	0	
5	0	0	0	0	0	514	512	504	32	0	
6	0	0	0	0	0	513	511	509	32	0	
7	0	0	0	0	0	514	510	506	31	0	
8	0	0	0	0	0	516	512	515	31	0	
9	0	0	0	0	1	515	512	521	31	0	
10	0	0	0	0	0	515	510	526	31	0	
11	0	0	0	0	0	515	511	527	31	0	
12	0	0	0	0	0	515	509	523	32	0	
13	0	0	0	0	0	515	509	526	32	0	
14	0	0	0	0	0	514	511	520	32	0	
15	0	0	0	0	0	514	508	511	32	0	
0	0	0	0	0	0	515	510	503	31	0	
1	0	0	0	0	4	513	510	502	31	0	
2	0	0	0	0	0	514	510	498	31	0	
3	0	0	0	0	0	513	509	501	31	0	
4	0	0	0	0	0	513	509	499	31	0	
5	0	0	0	0	0	513	510	500	32	0	
6	0	0	0	0	0	511	510	496	31	0	
7	0	0	0	0	0	516	510	504	32	0	
8	0	0	0	0	1	515	509	513	32	0	
9	0	0	0	0	4	514	508	519	32	0	
10	0	0	0	0	0	515	508	519	32	0	
11	0	0	0	0	0	513	509	524	32	0	
12	0	0	0	0	0	514	509	527	32	0	
13	0	0	0	0	0	512	509	520	32	0	
14	0	0	0	0	0	513	510	514	31	0	
15	0	0	0	0	0	512	511	508	31	0	
0	0	0	0	0	1	513	512	511	31	0	
1	0	0	0	0	3	516	510	503	32	0	
2	0	0	0	0	0	516	511	498	31	0	
3	0	0	0	0	0	513	508	499	32	0	
4	0	0	0	0	0	512	509	494	32	0	
5	0	0	0	0	0	513	511	496	32	0	
6	0	0	0	0	0	514	511	497	31	0	
7	0	0	0	0	0	513	510	502	31	0	
8	0	0	0	0	0	513	511	511	31	0	
9	0	0	0	0	3	513	510	511	31	0	
10	0	0	0	0	0	513	513	524	32	0	
11	0	0	0	0	0	514	511	523	32	0	
12	0	0	0	0	0	515	509	524	32	0	
13	0	0	0	0	0	513	508	519	32	0	
14	0	0	0	0	0	514	508	519	32	0	
15	0	0	0	0	0	515	511	518	31	0	
0	0	0	0	0	0	514	508	513	32	0	
1	0	0	0	0	4	515	508	509	31	0	
2	0	0	0	0	0	515	509	500	31	0	
3	0	0	0	0	0	512	509	493	31	0	
4	0	0	0	0	0	515	509	496	31	0	
5	0	0	0	0	0	514	508	498	32	0	
6	0	0	0	0	0	511	508	501	32	0	
7	0	0	0	0	0	513	509	507	32	0	
8	0	0	0	0	0	512	509	505	32	0	
9	0	0	0	0	3	514	509	514	32	0	
10	0	0	0	0	0	514	510	514	31	0	
11	0	0	0	0	0	515	511	519	32	0	
12	0	0	0	0	0	514	510	525	31	0	
13	0	0	0	0	0	515	511	525	32	0	
14	0	0	0	0	0	513	509	521	32	0	
15	0	0	0	0	0	513	508	518	32	0	
0	0	0	0	0	0	513	511	513	31	0	
1	0	0	0	0	4	514	510	508	31	0	
2	0	0	0	0	0	513	512	508	31	0	
3	0	0	0	0	0	513	509	502	32	0	
4	0	0	0	0	0	514	509	499	32	0	
5	0	0	0	0	0	515	510	496	31	0	
6	0	0	0	0	0	515	508	496	32	0	
7	0	0	0	0	0	515	507	497	32	0	
8	0	0	0	0	0	515	509	501	32	0	
9	0	0	0	0	3	515	509	505	31	0	
10	0	0	0	0	0	514	512	507	31	0	
11	0	0	0	0	0	513	511	515	32	0	
12	0	0	0	0	0	514	511	521	31	0	
13	0	0	0	0	0	513	510	522	32	0	
14	0	0	0	0	0	513	512	525	31	0	
15	0	0	0	0	0	513	511	527	32	0	
0	0	0	0	0	1	512	511	517	31	0	
1	0	0	0	0	3	512	509	514	32	0	
2	0	0	0	0	0	514	510	511	32	0	
3	0	0	0	0	0	512	511	505	31	0	
4	0	0	0	0	0	513	509	503	32	0	
5	0	0	0	0	0	512	510	502	32	0	
6	0	0	0	0	0	513	510	501	31	0	
7	0	0	0	0	0	514	510	491	31	0	
8	0	0	0	0	1	515	508	500	32	0	
9	0	0	0	0	4	515	509	505	31	0	
10	0	0	0	0	0	515	508	508	32	0	
11	0	0	0	0	0	513	509	512	32	0	
12	0	0	0	0	0	513	510	515	31	0	
13	0	0	0	0	0	514	509	520	32	0	
14	0	0	0	0	0	516	510	523	32	0	
15	0	0	0	0	0	514	509	522	32	0	
0	0	0	0	0	0	512	510	523	32	0	
1	0	0	0	0	3	515	510	520	31	0	
2	0	0	0	0	0	514	511	514	31	0	
3	0	0	0	0	0	512	508	509	31	0	
4	0	0	0	0	0	513	510	507	31	0	
5	0	0	0	0	0	515	511	497	32	0	
6	0	0	0	0	0	513	513	496	32	0	
7	0	0	0	0	0	513	510	494	32	0	
8	0	0	0	0	0	514	508	496	32	0	
9	0	0	0	0	2	514	508	499	31	0	
10	0	0	0	0	0	513	506	502	31	0	
11	0	0	0	0	0	515	508	513	31	0	
12	0	0	0	0	0	513	508	514	31	0	
13	0	0	0	0	0	513	510	521	32	0	
14	0	0	0	0	0	513	511	524	31	0	
15	0	0	0	0	0	514	510	525	32	0	
0	0	0	0	0	0	515	510	526	32	0	
1	0	0	0	0	2	513	509	523	31	0	
2	0	0	0	0	0	513	512	519	32	0	
3	0	0	0	0	0	512	509	514	32	0	
4	0	0	0	0	0	514	510	511	32	0	
5	0	0	0	0	0	513	508	503	32	0	
6	0	0	0	0	0	515	510	497	31	0	
7	0	0	0	0	0	514	511	496	31	0	
8	0	0	0	0	0	513	510	492	31	0	
9	0	0	0	0	2	514	508	494	31	0	
10	0	0	0	0	0	511	511	499	32	0	
11	0	0	0	0	0	512	510	509	32	0	
12	0	0	0	0	0	511	511	504	31	0	
13	0	0	0	0	0	513	510	511	32	0	
14	0	0	0	0	0	513	509	519	31	0	
15	0	0	0	0	0	515	509	519	32	0	
0	0	0	0	0	0	518	510	523	32	0	
1	0	0	0	0	3	516	508	523	31	0	
2	0	0	0	0	0	514	508	518	32	0	
3	0	0	0	0	0	515	509	515	32	0	
4	0	0	0	0	0	512	509	508	32	0	
5	0	0	0	0	0	513	508	508	31	0	
6	0	0	0	0	0	514	509	501	31	0	
7	0	0	0	0	0	514	510	496	31	0	
8	0	0	0	0	0	513	509	500	31	0	
9	0	0	0	0	3	513	513	506	31	0	
10	0	0	0	0	0	512	510	502	31	0	
11	0	0	0	0	0	513	511	511	32	0	
12	0	0	0	0	0	515	510	510	32	0	
13	0	0	0	0	0	517	510	514	32	0	
14	0	0	0	0	0	515	509	522	32	0	
15	0	0	0	0	0	515	507	525	32	0	
0	0	0	0	0	0	512	506	528	32	0	
1	0	0	0	0	3	513	509	525	32	0	
2	0	0	0	0	0	515	509	518	32	0	
3	0	0	0	0	0	513	511	519	32	0	
4	0	0	0	0	0	513	511	514	32	0	
5	0	0	0	0	0	512	511	511	32	0	
6	0	0	0	0	0	511	512	508	32	0	
7	0	0	0	0	0	514	511	501	31	0	
8	0	0	0	0	0	518	508	497	31	0	
9	0	0	0	0	4	521	507	495	32	0	
10	0	0	0	0	0	512	510	491	32	0	
11	0	0	0	0	0	505	510	500	31	0	
12	0	0	0	0	0	508	509	505	32	0	
13	0	0	0	0	0	510	514	514	31	0	
14	0	0	0	0	0	514	512	515	31	0	
15	0	0	0	0	0	513	506	522	32	0	
0	0	0	0	0	0	516	508	518	31	0	
1	0	0	0	0	4	517	508	523	32	0	
2	0	0	0	0	0	513	509	521	32	0	
3	0	0	0	0	0	513	507	512	32	0	
4	0	0	0	0	0	515	512	510	31	0	
5	0	0	0	0	0	518	522	506	30	0	
6	0	0	0	0	0	513	515	502	31	0	
7	0	0	0	0	0	518	504	497	32	0	
8	0	0	0	0	0	515	500	493	32	0	
9	0	0	0	0	3	508	505	492	32	0	
10	0	0	0	0	0	508	510	502	31	0	
11	0	0	0	0	0	511	511	497	32	0	
12	0	0	0	0	0	514	508	494	32	0	
13	0	0	0	0	0	515	510	499	31	0	
14	0	0	0	0	0	515	509	508	31	0	
15	0	0	0	0	0	514	508	512	32	0	
0	0	0	0	0	0	514	508	518	32	0	
1	0	0	0	0	4	515	510	516	32	0	
2	0	0	0	0	0	517	510	511	31	0	
3	0	0	0	0	0	514	511	507	32	0	
4	0	0	0	0	0	513	510	511	32	0	
5	0	0	0	0	0	513	509	499	32	0	
6	0	0	0	0	0	514	510	499	31	0	
7	0	0	0	0	0	513	508	494	32	0	
8	0	0	0	0	0	515	508	494	31	0	
9	0	0	0	0	4	513	511	491	31	0	
10	0	0	0	0	0	512	512	481	31	0	
11	0	0	0	0	0	515	513	487	31	0	
12	0	0	0	0	0	518	510	493	31	0	
13	0	0	0	0	0	517	508	505	32	0	
14	0	0	0	0	0	510	508	501	32	0	
15	0	0	0	0	0	508	510	500	32	0	
0	0	0	0	0	1	513	510	504	32	0	
1	0	0	0	0	3	514	509	508	31	0	
2	0	0	0	0	0	515	511	510	31	0	
3	0	0	0	0	0	523	510	506	32	0	
4	0	0	0	0	0	520	512	504	31	0	
5	0	0	0	0	0	518	511	514	32	0	
6	0	0	0	0	0	515	512	506	32	0	
7	0	0	0	0	0	515	512	509	32	0	
8	0	0	0	0	1	505	509	513	32	0	
9	0	0	0	0	3	507	508	496	31	0	
10	0	0	0	0	0	514	507	494	31	0	
11	0	0	0	0	0	524	512	491	31	0	
12	0	0	0	0	0	521	517	497	31	0	
13	0	0	0	0	0	498	512	517	32	0	
14	0	0	0	0	0	507	511	504	32	0	
15	0	0	0	0	0	532	505	504	31	0	
0	0	0	0	0	1	526	499	505	32	0	
1	0	0	0	0	1	500	505	507	31	0	
2	0	0	0	0	0	496	512	517	31	0	
3	0	0	0	0	0	503	518	530	32	0	
4	0	0	0	0	0	512	509	530	32	0	
5	0	0	0	0	0	520	500	530	32	0	
6	0	0	0	0	0	529	508	519	31	0	
7	0	0	0	0	0	519	512	515	31	0	
8	0	0	0	0	0	512	512	486	32	0	
9	0	0	0	0	1	527	504	459	31	0	
10	0	0	0	0	0	525	508	495	31	0	
11	0	0	0	0	0	505	507	534	32	0	
12	0	0	0	0	0	501	506	519	33	0	
13	0	0	0	0	0	516	513	479	32	0	
14	0	0	0	0	0	505	513	484	31	0	
15	0	0	0	0	0	502	511	496	31	0	
0	0	0	0	0	0	513	511	510	30	0	
1	0	0	0	0	1	522	511	504	30	0	
2	0	0	0	0	0	519	518	515	31	0	
3	0	0	0	0	0	509	523	528	31	0	
4	0	0	0	0	0	498	510	523	32	0	
5	0	0	0	0	0	514	514	488	31	0	
6	0	0	0	0	0	547	525	469	30	0	
7	0	0	0	0	0	531	536	478	29	0	
8	0	0	0	0	1	513	512	480	31	0	
9	0	0	0	0	3	519	493	470	35	0	
10	0	0	0	0	0	508	491	459	34	0	
11	0	0	0	0	0	486	500	462	32	0	
12	0	0	0	0	0	496	504	450	32	0	
13	0	0	0	0	0	497	493	465	32	0	
14	0	0	0	0	0	496	495	486	33	0	
15	0	0	0	0	0	507	504	480	33	0	
0	0	0	0	0	1	514	510	472	32	0	
1	0	0	0	0	3	522	512	468	31	0	
2	0	0	0	0	0	525	513	467	31	0	
3	0	0	0	0	0	523	517	452	31	0	
4	0	0	0	0	0	525	516	435	30	0	
5	0	0	0	0	0	522	508	455	32	0	
6	0	0	0	0	0	512	505	466	31	0	
7	0	0	0	0	0	512	506	463	32	0	
8	0	0	0	0	1	534	519	446	31	0	
9	0	0	0	0	3	543	514	431	31	0	
10	0	0	0	0	0	512	511	428	31	0	
11	0	0	0	0	0	499	507	442	32	0	
12	0	0	0	0	0	494	506	459	32	0	
13	0	0	0	0	0	498	507	473	32	0	
14	0	0	0	0	0	510	506	448	31	0	
15	0	0	0	0	0	514	508	446	32	0	
0	0	0	0	0	0	512	508	457	31	0	
1	0	0	0	0	4	515	512	470	31	0	
2	0	0	0	0	0	511	511	473	31	0	
3	0	0	0	0	0	516	512	479	31	0	
4	0	0	0	0	0	521	515	489	31	0	
5	0	0	0	0	0	524	519	489	31	0	
6	0	0	0	0	0	514	516	498	31	0	
7	0	0	0	0	0	512	511	497	31	0	
8	0	0	0	0	1	516	508	492	31	0	
9	0	0	0	0	4	512	509	503	31	0	
10	0	0	0	0	0	511	508	502	32	0	
11	0	0	0	0	0	514	506	509	32	0	
12	0	0	0	0	0	518	503	510	32	0	
13	0	0	0	0	0	517	503	513	32	0	
14	0	0	0	0	0	511	509	504	32	0	
15	0	0	0	0	0	507	512	502	31	0	
0	0	0	0	0	1	510	511	523	31	0	
1	0	0	0	0	3	518	510	531	31	0	
2	0	0	0	0	0	513	512	543	31	0	
3	0	0	0	0	0	512	510	551	31	0	
4	0	0	0	0	0	513	510	551	32	0	
5	0	0	0	0	0	518	510	561	32	0	
6	0	0	0	0	0	518	513	561	31	0	
7	0	0	0	0	0	513	514	557	31	0	
8	0	0	0	0	1	513	508	554	31	0	
9	0	0	0	0	3	522	506	543	32	0	
10	0	0	0	0	0	514	508	552	32	0	
11	0	0	0	0	0	510	508	555	32	0	
12	0	0	0	0	0	508	510	543	31	0	
13	0	0	0	0	0	513	511	533	31	0	
14	0	0	0	0	0	520	510	528	31	0	
15	0	0	0	0	0	525	515	531	32	0	
0	0	0	0	0	0	507	514	541	32	0	
1	0	0	0	0	3	497	511	567	31	0	
2	0	0	0	0	0	518	506	538	31	0	
3	0	0	0	0	0	516	504	551	32	0	
4	0	0	0	0	0	511	504	562	32	0	
5	0	0	0	0	0	511	507	564	32	0	
6	0	0	0	0	0	515	511	569	32	0	
7	0	0	0	0	0	514	512	569	32	0	
8	0	0	0	0	0	516	511	563	32	0	
9	0	0	0	0	3	517	511	555	31	0	
10	0	0	0	0	0	518	509	548	31	0	
11	0	0	0	0	0	515	510	551	32	0	
12	0	0	0	0	0	512	509	547	32	0	
13	0	0	0	0	0	512	509	531	32	0	
14	0	0	0	0	0	515	510	528	31	0	
15	0	0	0	0	0	514	509	524	31	0	
0	0	0	0	0	0	512	512	529	31	0	
1	0	0	0	0	4	513	512	533	32	0	
2	0	0	0	0	0	517	513	533	32	0	
3	0	0	0	0	0	523	511	531	32	0	
4	0	0	0	0	0	515	514	531	31	0	
5	0	0	0	0	0	505	505	544	31	0	
6	0	0	0	0	0	510	502	558	31	0	
7	0	0	0	0	0	514	511	561	32	0	
8	0	0	0	0	1	513	514	564	32	0	
9	0	0	0	0	3	515	508	553	32	0	
10	0	0	0	0	0	514	502	541	31	0	
11	0	0	0	0	0	519	505	537	31	0	
12	0	0	0	0	0	517	505	529	31	0	
13	0	0	0	0	0	512	508	500	31	0	
14	0	0	0	0	0	509	510	488	31	0	
15	0	0	0	0	0	512	509	494	31	0	
0	0	0	0	0	0	512	510	507	31	0	
1	0	0	0	0	2	509	512	507	31	0	
2	0	0	0	0	0	519	511	507	31	0	
3	0	0	0	0	0	511	515	510	31	0	
4	0	0	0	0	0	512	513	524	31	0	
5	0	0	0	0	0	506	511	550	32	0	
6	0	0	0	0	0	522	507	540	32	0	
7	0	0	0	0	0	523	505	541	32	0	
8	0	0	0	0	0	514	507	543	32	0	
9	0	0	0	0	2	513	510	531	31	0	
10	0	0	0	0	0	515	508	524	31	0	
11	0	0	0	0	0	510	511	531	31	0	
12	0	0	0	0	0	506	508	515	31	0	
13	0	0	0	0	0	502	508	515	31	0	
14	0	0	0	0	0	521	510	506	31	0	
15	0	0	0	0	0	519	509	509	31	0	
0	0	0	0	0	0	519	510	501	31	0	
1	0	0	0	0	2	512	510	492	31	0	
2	0	0	0	0	0	512	509	497	32	0	
3	0	0	0	0	0	512	510	527	32	0	
4	0	0	0	0	0	512	515	516	31	0	
5	0	0	0	0	0	513	512	506	32	0	
6	0	0	0	0	0	515	509	515	32	0	
7	0	0	0	0	0	515	513	527	32	0	
8	0	0	0	0	0	514	512	528	32	0	
9	0	0	0	0	4	514	513	531	32	0	
10	0	0	0	0	0	512	511	527	32	0	
11	0	0	0	0	0	511	507	526	32	0	
12	0	0	0	0	0	515	507	519	31	0	
13	0	0	0	0	0	518	505	518	31	0	
14	0	0	0	0	0	519	507	506	31	0	
15	0	0	0	0	0	507	510	503	31	0	
0	0	0	0	0	1	509	511	504	31	0	
1	0	0	0	0	3	516	512	496	31	0	
2	0	0	0	0	0	519	511	503	31	0	
3	0	0	0	0	0	517	511	514	32	0	
4	0	0	0	0	0	511	509	522	32	0	
5	0	0	0	0	0	510	510	515	32	0	
6	0	0	0	0	0	518	508	515	32	0	
7	0	0	0	0	0	518	510	519	32	0	
8	0	0	0	0	1	516	510	526	32	0	
9	0	0	0	0	3	515	510	528	31	0	
10	0	0	0	0	0	513	509	529	32	0	
11	0	0	0	0	0	515	511	527	32	0	
12	0	0	0	0	0	514	510	513	31	0	
13	0	0	0	0	0	517	510	511	31	0	
14	0	0	0	0	0	513	511	516	31	0	
15	0	0	0	0	0	511	511	517	32	0	
0	0	0	0	0	0	510	509	520	32	0	
1	0	0	0	0	4	510	509	519	32	0	
2	0	0	0	0	0	508	507	505	31	0	
3	0	0	0	0	0	512	505	508	32	0	
4	0	0	0	0	0	513	507	524	32	0	
5	0	0	0	0	0	515	508	519	32	0	
6	0	0	0	0	0	515	511	515	31	0	
7	0	0	0	0	0	515	511	519	31	0	
8	0	0	0	0	0	515	510	522	31	0	
9	0	0	0	0	4	513	512	529	31	0	
10	0	0	0	0	0	515	512	527	31	0	
11	0	0	0	0	0	514	510	527	31	0	
12	0	0	0	0	0	515	509	527	32	0	
13	0	0	0	0	0	516	511	516	32	0	
14	0	0	0	0	0	514	511	518	32	0	
15	0	0	0	0	0	516	508	508	32	0	
0	0	0	0	0	1	514	506	503	32	0	
1	0	0	0	0	4	512	507	503	31	0	
2	0	0	0	0	0	512	509	496	31	0	
3	0	0	0	0	0	513	508	496	32	0	
4	0	0	0	0	0	514	511	499	31	0	
5	0	0	0	0	0	511	512	504	31	0	
6	0	0	0	0	0	516	512	510	31	0	
7	0	0	0	0	0	518	510	515	32	0	
8	0	0	0	0	0	507	507	510	32	0	
9	0	0	0	0	3	505	510	520	32	0	
10	0	0	0	0	0	510	508	526	32	0	
11	0	0	0	0	0	514	510	529	32	0	
12	0	0	0	0	0	512	512	523	31	0	
13	0	0	0	0	0	512	509	510	31	0	
14	0	0	0	0	0	516	509	502	31	0	
15	0	0	0	0	0	520	510	504	31	0	
0	0	0	0	0	1	516	510	502	31	0	
1	0	0	0	0	3	515	509	499	31	0	
2	0	0	0	0	0	517	510	499	31	0	
3	0	0	0	0	0	515	509	501	32	0	
4	0	0	0	0	0	514	508	508	32	0	
5	0	0	0	0	0	513	508	510	31	0	
6	0	0	0	0	0	515	510	505	31	0	
7	0	0	0	0	0	518	511	503	31	0	
8	0	0	0	0	1	515	509	514	32	0	
9	0	0	0	0	3	515	508	519	32	0	
10	0	0	0	0	0	512	506	521	32	0	
11	0	0	0	0	0	513	511	527	32	0	
12	0	0	0	0	0	513	508	523	31	0	
13	0	0	0	0	0	511	512	529	32	0	
14	0	0	0	0	0	515	510	517	32	0	
15	0	0	0	0	0	513	508	511	31	0	
0	0	0	0	0	1	512	508	512	32	0	
1	0	0	0	0	3	514	509	504	31	0	
2	0	0	0	0	0	515	510	495	31	0	
3	0	0	0	0	0	512	511	500	31	0	
4	0	0	0	0	0	512	510	496	31	0	
5	0	0	0	0	0	514	512	502	31	0	
6	0	0	0	0	0	515	515	504	31	0	
7	0	0	0	0	0	513	514	508	31	0	
8	0	0	0	0	1	517	511	510	31	0	
9	0	0	0	0	4	513	508	520	31	0	
10	0	0	0	0	0	512	509	529	31	0	
11	0	0	0	0	0	514	507	531	32	0	
12	0	0	0	0	0	512	507	534	32	0	
13	0	0	0	0	0	515	508	531	32	0	
14	0	0	0	0	0	515	509	521	32	0	
15	0	0	0	0	0	518	510	515	31	0	
0	0	0	0	0	0	517	511	513	31	0	
1	0	0	0	0	1	517	513	512	31	0	
2	0	0	0	0	0	514	514	505	31	0	
3	0	0	0	0	0	512	511	504	31	0	
4	0	0	0	0	0	513	511	502	32	0	
5	0	0	0	0	0	513	508	504	32	0	
6	0	0	0	0	0	512	505	504	32	0	
7	0	0	0	0	0	511	504	511	32	0	
8	0	0	0	0	0	511	506	514	32	0	
9	0	0	0	0	1	513	510	511	31	0	
10	0	0	0	0	0	515	511	523	32	0	
11	0	0	0	0	0	514	515	526	31	0	
12	0	0	0	0	0	516	512	533	31	0	
13	0	0	0	0	0	515	508	527	31	0	
14	0	0	0	0	0	514	510	529	32	0	
15	0	0	0	0	0	512	510	529	32	0	
0	0	0	0	0	0	515	507	524	32	0	
1	0	0	0	0	4	510	510	522	32	0	
2	0	0	0	0	0	512	508	519	32	0	
3	0	0	0	0	0	512	508	506	32	0	
4	0	0	0	0	0	515	508	505	32	0	
5	0	0	0	0	0	511	506	499	32	0	
6	0	0	0	0	0	512	508	499	32	0	
7	0	0	0	0	0	514	511	495	31	0	
8	0	0	0	0	0	512	510	498	31	0	
9	0	0	0	0	3	513	507	504	31	0	
10	0	0	0	0	0	516	511	511	31	0	
11	0	0	0	0	0	516	511	514	31	0	
12	0	0	0	0	0	516	512	519	31	0	
13	0	0	0	0	0	515	512	521	31	0	
14	0	0	0	0	0	514	511	518	31	0	
15	0	0	0	0	0	514	511	517	32	0	
0	0	0	0	0	1	516	509	509	32	0	
1	0	0	0	0	4	517	509	507	31	0	
2	0	0	0	0	0	514	509	500	31	0	
3	0	0	0	0	0	514	512	504	31	0	
4	0	0	0	0	0	512	511	494	31	0	
5	0	0	0	0	0	511	512	494	32	0	
6	0	0	0	0	0	511	510	496	32	0	
7	0	0	0	0	0	513	511	498	31	0	
8	0	0	0	0	1	513	510	507	31	0	
9	0	0	0	0	4	513	512	508	31	0	
10	0	0	0	0	0	514	510	510	31	0	
11	0	0	0	0	0	516	508	513	32	0	
12	0	0	0	0	0	515	508	516	32	0	
13	0	0	0	0	0	515	510	519	32	0	
14	0	0	0	0	0	512	510	517	32	0	
15	0	0	0	0	0	516	508	519	31	0	
0	0	0	0	0	1	515	509	518	31	0	
1	0	0	0	0	4	513	511	511	31	0	
2	0	0	0	0	0	515	513	497	31	0	
3	0	0	0	0	0	515	513	494	31	0	
4	0	0	0	0	0	516	512	495	31	0	
5	0	0	0	0	0	512	511	494	32	0	
6	0	0	0	0	0	513	508	493	32	0	
7	0	0	0	0	0	512	508	497	32	0	
8	0	0	0	0	0	513	506	494	32	0	
9	0	0	0	0	3	513	508	497	32	0	
10	0	0	0	0	0	513	507	500	31	0	
11	0	0	0	0	0	512	507	502	32	0	
12	0	0	0	0	0	514	508	511	32	0	
13	0	0	0	0	0	513	508	516	32	0	
14	0	0	0	0	0	513	507	521	32	0	
15	0	0	0	0	0	511	509	526	32	0	
0	0	0	0	0	1	511	513	518	31	0	
1	0	0	0	0	3	511	515	514	31	0	
2	0	0	0	0	0	511	512	504	31	0	
3	0	0	0	0	0	515	512	507	31	0	
4	0	0	0	0	0	514	508	503	31	0	
5	0	0	0	0	0	513	508	498	32	0	
6	0	0	0	0	0	515	509	489	32	0	
7	0	0	0	0	0	516	510	488	31	0	
8	0	0	0	0	0	518	510	490	32	0	
9	0	0	0	0	4	516	508	492	32	0	
10	0	0	0	0	0	514	510	498	31	0	
11	0	0	0	0	0	511	507	503	32	0	
12	0	0	0	0	0	512	511	509	32	0	
13	0	0	0	0	0	512	509	519	32	0	
14	0	0	0	0	0	511	507	524	32	0	
15	0	0	0	0	0	513	508	523	32	0	
0	0	0	0	0	0	515	510	517	31	0	
1	0	0	0	0	4	515	511	513	31	0	
2	0	0	0	0	0	515	512	508	31	0	
3	0	0	0	0	0	515	511	505	31	0	
4	0	0	0	0	0	515	511	501	32	0	
5	0	0	0	0	0	517	509	491	32	0	
6	0	0	0	0	0	515	508	487	32	0	
7	0	0	0	0	0	515	510	486	32	0	
8	0	0	0	0	1	513	510	487	31	0	
9	0	0	0	0	4	514	511	492	31	0	
10	0	0	0	0	0	511	507	494	32	0	
11	0	0	0	0	0	512	510	500	32	0	
12	0	0	0	0	0	511	508	507	31	0	
13	0	0	0	0	0	511	509	506	31	0	
14	0	0	0	0	0	513	510	517	31	0	
15	0	0	0	0	0	513	511	524	31	0	
0	0	0	0	0	0	513	509	524	31	0	
1	0	0	0	0	3	516	512	521	31	0	
2	0	0	0	0	0	516	513	519	31	0	
3	0	0	0	0	0	513	512	519	31	0	
4	0	0	0	0	0	512	510	516	31	0	
5	0	0	0	0	0	513	511	513	32	0	
6	0	0	0	0	0	515	508	504	32	0	
7	0	0	0	0	0	515	508	502	32	0	
8	0	0	0	0	0	515	510	503	32	0	
9	0	0	0	0	2	516	509	507	32	0	
10	0	0	0	0	0	515	508	496	32	0	
11	0	0	0	0	0	512	512	503	31	0	
12	0	0	0	0	0	514	512	509	31	0	
13	0	0	0	0	0	513	511	511	32	0	
14	0	0	0	0	0	514	510	516	31	0	
15	0	0	0	0	0	515	509	519	32	0	
0	0	0	0	0	0	514	508	526	32	0	
1	0	0	0	0	2	513	511	533	31	0	
2	0	0	0	0	0	513	508	526	32	0	
3	0	0	0	0	0	512	508	524	32	0	
4	0	0	0	0	0	512	508	513	32	0	
5	0	0	0	0	0	515	508	513	32	0	
6	0	0	0	0	0	515	510	511	32	0	
7	0	0	0	0	0	510	508	497	32	0	
8	0	0	0	0	0	515	512	497	31	0	
9	0	0	0	0	2	515	512	503	31	0	
10	0	0	0	0	0	513	513	497	31	0	
11	0	0	0	0	0	512	513	503	31	0	
12	0	0	0	0	0	512	508	511	31	0	
13	0	0	0	0	0	512	507	509	32	0	
14	0	0	0	0	0	515	509	512	32	0	
15	0	0	0	0	0	514	510	516	31	0	
0	0	0	0	0	1	513	508	522	32	0	
1	0	0	0	0	4	515	506	530	32	0	
2	0	0	0	0	0	516	508	519	32	0	
3	0	0	0	0	0	515	510	524	32	0	
4	0	0	0	0	0	513	510	517	32	0	
5	0	0	0	0	0	515	510	514	31	0	
6	0	0	0	0	0	513	509	510	32	0	
7	0	0	0	0	0	513	509	501	32	0	
8	0	0	0	0	1	513	508	498	31	0	
9	0	0	0	0	4	515	510	497	32	0	
10	0	0	0	0	0	513	511	494	31	0	
11	0	0	0	0	0	513	510	499	31	0	
12	0	0	0	0	0	513	511	500	31	0	
13	0	0	0	0	0	512	512	499	31	0	
14	0	0	0	0	0	513	510	503	31	0	
15	0	0	0	0	0	513	508	514	32	0	
0	0	0	0	0	0	515	510	518	32	0	
1	0	0	0	0	3	513	508	519	31	0	
2	0	0	0	0	0	515	509	521	32	0	
3	0	0	0	0	0	516	508	523	32	0	
4	0	0	0	0	0	516	509	514	31	0	
5	0	0	0	0	0	514	510	511	32	0	
6	0	0	0	0	0	511	509	512	32	0	
7	0	0	0	0	0	511	511	511	31	0	
8	0	0	0	0	0	511	510	501	31	0	
9	0	0	0	0	4	513	511	499	31	0	
10	0	0	0	0	0	513	508	497	32	0	
11	0	0	0	0	0	515	511	494	32	0	
12	0	0	0	0	0	514	511	496	31	0	
13	0	0	0	0	0	514	512	505	31	0	
14	0	0	0	0	0	512	511	507	31	0	
15	0	0	0	0	0	514	508	515	32	0	
0	0	0	0	0	0	514	507	513	32	0	
1	0	0	0	0	3	514	509	519	32	0	
2	0	0	0	0	0	513	509	526	32	0	
3	0	0	0	0	0	515	507	528	32	0	
4	0	0	0	0	0	516	509	525	31	0	
5	0	0	0	0	0	515	512	519	31	0	
6	0	0	0	0	0	515	510	515	32	0	
7	0	0	0	0	0	514	511	512	32	0	
8	0	0	0	0	0	512	509	505	31	0	
9	0	0	0	0	3	513	508	497	31	0	
10	0	0	0	0	0	511	508	498	32	0	
11	0	0	0	0	0	511	509	497	32	0	
12	0	0	0	0	0	512	508	500	32	0	
13	0	0	0	0	0	515	511	502	32	0	
14	0	0	0	0	0	515	508	500	32	0	
15	0	0	0	0	0	515	511	508	32	0	
0	0	0	0	0	1	513	513	510	31	0	
1	0	0	0	0	4	511	513	519	31	0	
2	0	0	0	0	0	512	510	524	31	0	
3	0	0	0	0	0	512	511	528	32	0	
4	0	0	0	0	0	515	510	529	32	0	
5	0	0	0	0	0	516	508	516	32	0	
6	0	0	0	0	0	515	508	512	32	0	
7	0	0	0	0	0	515	508	510	32	0	
8	0	0	0	0	0	515	507	505	32	0	
9	0	0	0	0	4	515	508	503	32	0	
10	0	0	0	0	0	515	508	496	32	0	
11	0	0	0	0	0	516	511	492	31	0	
12	0	0	0	0	0	513	512	493	31	0	
13	0	0	0	0	0	515	512	497	31	0	
14	0	0	0	0	0	513	512	503	31	0	
15	0	0	0	0	0	513	511	505	31	0	
0	0	0	0	0	0	513	510	508	32	0	
1	0	0	0	0	4	513	509	519	32	0	
2	0	0	0	0	0	515	508	518	31	0	
3	0	0	0	0	0	512	508	527	32	0	
4	0	0	0	0	0	511	509	526	32	0	
5	0	0	0	0	0	514	509	522	32	0	
6	0	0	0	0	0	514	510	513	31	0	
7	0	0	0	0	0	514	511	515	31	0	
8	0	0	0	0	1	515	510	510	31	0	
9	0	0	0	0	3	514	510	510	32	0	
10	0	0	0	0	0	514	512	506	31	0	
11	0	0	0	0	0	514	508	504	32	0	
12	0	0	0	0	0	514	508	498	32	0	
13	0	0	0	0	0	511	508	499	32	0	
14	0	0	0	0	0	514	510	502	32	0	
15	0	0	0	0	0	514	510	510	31	0	
0	0	0	0	0	1	512	510	512	31	0	
1	0	0	0	0	3	512	511	512	31	0	
2	0	0	0	0	0	513	508	518	32	0	
3	0	0	0	0	0	514	510	527	32	0	
4	0	0	0	0	0	515	510	526	32	0	
5	0	0	0	0	0	514	511	519	32	0	
6	0	0	0	0	0	514	511	523	31	0	
7	0	0	0	0	0	514	508	515	31	0	
8	0	0	0	0	0	513	511	513	32	0	
9	0	0	0	0	1	515	510	512	31	0	
10	0	0	0	0	0	516	510	506	31	0	
11	0	0	0	0	0	517	508	501	31	0	
12	0	0	0	0	0	513	506	499	32	0	
13	0	0	0	0	0	513	506	498	32	0	
14	0	0	0	0	0	511	506	501	32	0	
15	0	0	0	0	0	515	510	499	32	0	
0	0	0	0	0	0	516	510	503	31	0	
1	0	0	0	0	1	518	513	508	31	0	
2	0	0	0	0	0	515	509	510	32	0	
3	0	0	0	0	0	515	511	516	32	0	
4	0	0	0	0	0	513	508	528	32	0	
5	0	0	0	0	0	511	508	519	32	0	
6	0	0	0	0	0	513	510	521	32	0	
7	0	0	0	0	0	515	513	515	31	0	
8	0	0	0	0	0	510	513	517	31	0	
9	0	0	0	0	1	510	511	515	31	0	
10	0	0	0	0	0	510	510	505	31	0	
11	0	0	0	0	0	513	506	502	32	0	
12	0	0	0	0	0	515	508	493	32	0	
13	0	0	0	0	0	514	508	489	31	0	
14	0	0	0	0	0	513	511	491	31	0	
15	0	0	0	0	0	512	511	499	32	0	
0	0	0	0	0	1	512	511	497	32	0	
1	0	0	0	0	4	513	510	504	32	0	
2	0	0	0	0	0	515	510	510	32	0	
3	0	0	0	0	0	513	509	515	31	0	
4	0	0	0	0	0	514	509	520	32	0	
5	0	0	0	0	0	516	510	525	31	0	
6	0	0	0	0	0	516	511	519	31	0	
7	0	0	0	0	0	515	510	517	31	0	
8	0	0	0	0	1	515	508	514	31	0	
9	0	0	0	0	4	516	510	517	31	0	
10	0	0	0	0	0	512	509	507	32	0	
11	0	0	0	0	0	514	510	511	32	0	
12	0	0	0	0	0	514	509	504	31	0	
13	0	0	0	0	0	513	509	498	32	0	
14	0	0	0	0	0	514	509	494	31	0	
15	0	0	0	0	0	513	512	496	31	0	
0	0	0	0	0	1	512	511	497	31	0	
1	0	0	0	0	3	513	508	503	32	0	
2	0	0	0	0	0	515	509	505	32	0	
3	0	0	0	0	0	515	510	506	31	0	
4	0	0	0	0	0	512	506	512	31	0	
5	0	0	0	0	0	512	508	515	32	0	
6	0	0	0	0	0	510	510	521	32	0	
7	0	0	0	0	0	512	507	521	32	0	
8	0	0	0	0	0	515	510	519	32	0	
9	0	0	0	0	4	515	511	519	31	0	
10	0	0	0	0	0	514	511	516	32	0	
11	0	0	0	0	0	516	513	512	31	0	
12	0	0	0	0	0	515	513	508	31	0	
13	0	0	0	0	0	515	512	498	32	0	
14	0	0	0	0	0	514	514	496	32	0	
15	0	0	0	0	0	514	511	496	32	0	
0	0	0	0	0	0	515	509	496	32	0	
1	0	0	0	0	4	515	509	502	32	0	
2	0	0	0	0	0	515	509	508	32	0	
3	0	0	0	0	0	511	511	505	31	0	
4	0	0	0	0	0	513	513	515	31	0	
5	0	0	0	0	0	513	511	523	31	0	
6	0	0	0	0	0	512	508	531	32	0	
7	0	0	0	0	0	512	507	530	31	0	
8	0	0	0	0	0	515	508	533	31	0	
9	0	0	0	0	4	515	507	526	31	0	
10	0	0	0	0	0	514	507	525	32	0	
11	0	0	0	0	0	513	508	518	31	0	
12	0	0	0	0	0	511	510	513	31	0	
13	0	0	0	0	0	514	509	509	31	0	
14	0	0	0	0	0	513	509	502	32	0	
15	0	0	0	0	0	512	510	496	32	0	
0	0	0	0	0	0	513	509	498	32	0	
1	0	0	0	0	3	513	507	496	32	0	
2	0	0	0	0	0	513	509	504	32	0	
3	0	0	0	0	0	513	509	507	31	0	
4	0	0	0	0	0	515	508	501	31	0	
5	0	0	0	0	0	513	511	509	32	0	
6	0	0	0	0	0	518	510	508	32	0	
7	0	0	0	0	0	519	511	515	32	0	
8	0	0	0	0	0	517	512	517	32	0	
9	0	0	0	0	4	515	512	518	31	0	
10	0	0	0	0	0	515	511	512	32	0	
11	0	0	0	0	0	512	507	502	32	0	
12	0	0	0	0	0	513	511	504	32	0	
13	0	0	0	0	0	513	508	499	32	0	
14	0	0	0	0	0	515	510	499	32	0	
15	0	0	0	0	0	514	510	489	32	0	
0	0	0	0	0	0	516	510	484	32	0	
1	0	0	0	0	4	511	511	492	31	0	
2	0	0	0	0	0	512	512	491	31	0	
3	0	0	0	0	0	513	511	495	31	0	
4	0	0	0	0	0	512	511	501	31	0	
5	0	0	0	0	0	512	510	507	31	0	
6	0	0	0	0	0	512	508	514	31	0	
7	0	0	0	0	0	513	507	518	32	0	
8	0	0	0	0	1	516	508	524	32	0	
9	0	0	0	0	3	515	508	519	32	0	
10	0	0	0	0	0	515	508	521	32	0	
11	0	0	0	0	0	514	511	518	32	0	
12	0	0	0	0	0	514	510	512	31	0	
13	0	0	0	0	0	514	511	508	31	0	
14	0	0	0	0	0	514	511	510	31	0	
15	0	0	0	0	0	512	510	505	31	0	
0	0	0	0	0	1	515	507	505	32	0	
1	0	0	0	0	3	512	507	499	31	0	
2	0	0	0	0	0	513	511	499	32	0	
3	0	0	0	0	0	512	510	505	32	0	
4	0	0	0	0	0	512	510	504	32	0	
5	0	0	0	0	0	514	508	509	32	0	
6	0	0	0	0	0	515	511	512	32	0	
7	0	0	0	0	0	512	510	521	32	0	
8	0	0	0	0	0	512	508	522	31	0	
9	0	0	0	0	2	513	510	520	31	0	
10	0	0	0	0	0	513	510	523	32	0	
11	0	0	0	0	0	515	508	518	32	0	
12	0	0	0	0	0	516	508	519	32	0	
13	0	0	0	0	0	515	508	519	32	0	
14	0	0	0	0	0	514	510	513	31	0	
15	0	0	0	0	0	516	511	509	31	0	
0	0	0	0	0	0	515	509	503	31	0	
1	0	0	0	0	2	513	508	500	31	0	
2	0	0	0	0	0	513	510	497	31	0	
3	0	0	0	0	0	513	512	500	32	0	
4	0	0	0	0	0	512	509	497	31	0	
5	0	0	0	0	0	512	510	502	32	0	
6	0	0	0	0	0	516	510	505	31	0	
7	0	0	0	0	0	517	511	505	31	0	
8	0	0	0	0	0	514	511	517	31	0	
9	0	0	0	0	3	513	509	515	32	0	
10	0	0	0	0	0	513	509	519	32	0	
11	0	0	0	0	0	514	510	519	32	0	
12	0	0	0	0	0	514	508	513	32	0	
13	0	0	0	0	0	513	508	508	32	0	
14	0	0	0	0	0	514	509	507	32	0	
15	0	0	0	0	0	514	510	504	31	0	
0	0	0	0	0	1	513	512	501	32	0	
1	0	0	0	0	4	514	511	495	31	0	
2	0	0	0	0	0	514	512	489	31	0	
3	0	0	0	0	0	513	511	494	31	0	
4	0	0	0	0	0	513	510	497	31	0	
5	0	0	0	0	0	513	512	502	31	0	
6	0	0	0	0	0	514	510	507	32	0	
7	0	0	0	0	0	515	511	507	32	0	
8	0	0	0	0	1	514	510	514	32	0	
9	0	0	0	0	4	515	508	518	32	0	
10	0	0	0	0	0	515	508	521	31	0	
11	0	0	0	0	0	515	508	522	31	0	
12	0	0	0	0	0	513	508	519	32	0	
13	0	0	0	0	0	515	508	515	32	0	
14	0	0	0	0	0	512	507	514	32	0	
15	0	0	0	0	0	513	510	507	32	0	
0	0	0	0	0	1	514	511	502	32	0	
1	0	0	0	0	4	514	512	500	32	0	
2	0	0	0	0	0	513	512	492	31	0	
3	0	0	0	0	0	513	512	494	31	0	
4	0	0	0	0	0	514	511	496	31	0	
5	0	0	0	0	0	514	510	502	32	0	
6	0	0	0	0	0	515	512	505	31	0	
7	0	0	0	0	0	514	510	508	32	0	
8	0	0	0	0	0	513	510	513	32	0	
9	0	0	0	0	3	516	510	514	31	0	
10	0	0	0	0	0	515	508	521	32	0	
11	0	0	0	0	0	514	508	524	31	0	
12	0	0	0	0	0	514	509	521	31	0	
13	0	0	0	0	0	514	508	519	31	0	
14	0	0	0	0	0	514	510	518	31	0	
15	0	0	0	0	0	513	507	513	32	0	
0	0	0	0	0	0	514	506	509	31	0	
1	0	0	0	0	4	512	506	507	31	0	
2	0	0	0	0	0	512	509	498	32	0	
3	0	0	0	0	0	515	509	495	32	0	
4	0	0	0	0	0	515	512	494	31	0	
5	0	0	0	0	0	514	512	498	32	0	
6	0	0	0	0	0	514	512	504	32	0	
7	0	0	0	0	0	515	510	507	32	0	
8	0	0	0	0	0	512	510	509	32	0	
9	0	0	0	0	4	515	509	510	32	0	
10	0	0	0	0	0	515	508	522	32	0	
11	0	0	0	0	0	512	510	521	32	0	
12	0	0	0	0	0	513	511	526	32	0	
13	0	0	0	0	0	513	510	521	32	0	
14	0	0	0	0	0	515	510	515	32	0	
15	0	0	0	0	0	516	508	513	32	0	
0	0	0	0	0	0	515	509	510	32	0	
1	0	0	0	0	4	515	510	504	31	0	
2	0	0	0	0	0	514	509	495	31	0	
3	0	0	0	0	0	512	511	493	31	0	
4	0	0	0	0	0	513	512	494	31	0	
5	0	0	0	0	0	512	509	498	31	0	
6	0	0	0	0	0	512	510	500	31	0	
7	0	0	0	0	0	512	508	504	32	0	
8	0	0	0	0	1	512	510	508	32	0	
9	0	0	0	0	3	513	512	505	31	0	
10	0	0	0	0	0	512	510	513	31	0	
11	0	0	0	0	0	516	508	519	31	0	
12	0	0	0	0	0	515	505	525	32	0	
13	0	0	0	0	0	516	508	528	32	0	
14	0	0	0	0	0	516	509	526	32	0	
15	0	0	0	0	0	516	512	527	32	0	
0	0	0	0	0	1	514	513	518	32	0	
1	0	0	0	0	4	515	509	516	31	0	
2	0	0	0	0	0	516	509	509	32	0	
3	0	0	0	0	0	513	510	499	32	0	
4	0	0	0	0	0	512	508	497	32	0	
5	0	0	0	0	0	512	510	495	32	0	
6	0	0	0	0	0	513	510	491	31	0	
7	0	0	0	0	0	510	511	496	32	0	
8	0	0	0	0	0	512	510	501	32	0	
9	0	0	0	0	4	513	508	501	32	0	
10	0	0	0	0	0	512	510	502	31	0	
11	0	0	0	0	0	513	508	505	31	0	
12	0	0	0	0	0	514	509	511	31	0	
13	0	0	0	0	0	513	515	514	31	0	
14	0	0	0	0	0	516	511	522	31	0	
15	0	0	0	0	0	513	505	513	32	0	
0	0	0	0	0	0	514	505	505	32	0	
1	0	0	0	0	1	512	509	507	31	0	
2	0	0	0	0	0	513	508	497	32	0	
3	0	0	0	0	0	514	512	501	32	0	
4	0	0	0	0	0	514	511	498	32	0	
5	0	0	0	0	0	515	510	495	32	0	
6	0	0	0	0	0	519	510	495	31	0	
7	0	0	0	0	0	518	510	501	32	0	
8	0	0	0	0	0	515	510	495	31	0	
9	0	0	0	0	1	513	509	499	31	0	
10	0	0	0	0	0	514	509	500	32	0	
11	0	0	0	0	0	512	510	504	31	0	
12	0	0	0	0	0	511	511	508	31	0	
13	0	0	0	0	0	512	509	518	32	0	
14	0	0	0	0	0	513	510	520	32	0	
15	0	0	0	0	0	513	511	516	31	0	
0	0	0	0	0	0	513	511	514	31	0	
1	0	0	0	0	1	513	510	512	32	0	
2	0	0	0	0	0	515	510	505	31	0	
3	0	0	0	0	0	515	509	504	31	0	
4	0	0	0	0	0	515	509	502	32	0	
5	0	0	0	0	0	515	508	501	32	0	
6	0	0	0	0	0	514	511	496	32	0	
7	0	0	0	0	0	513	508	495	32	0	
8	0	0	0	0	0	514	508	500	32	0	
9	0	0	0	0	3	511	509	507	31	0	
10	0	0	0	0	0	512	511	509	31	0	
11	0	0	0	0	0	514	510	506	31	0	
12	0	0	0	0	0	515	508	509	31	0	
13	0	0	0	0	0	513	510	515	32	0	
14	0	0	0	0	0	515	512	525	32	0	
15	0	0	0	0	0	516	509	525	32	0	
0	0	0	0	0	0	515	510	524	31	0	
1	0	0	0	0	3	513	509	527	31	0	
2	0	0	0	0	0	512	510	522	32	0	
3	0	0	0	0	0	514	512	515	32	0	
4	0	0	0	0	0	515	509	518	32	0	
5	0	0	0	0	0	514	508	510	32	0	
6	0	0	0	0	0	514	509	500	31	0	
7	0	0	0	0	0	512	508	500	32	0	
8	0	0	0	0	1	513	509	504	31	0	
9	0	0	0	0	4	513	508	506	31	0	
10	0	0	0	0	0	514	510	511	31	0	
11	0	0	0	0	0	513	510	512	31	0	
12	0	0	0	0	0	515	512	514	31	0	
13	0	0	0	0	0	513	511	526	31	0	
14	0	0	0	0	0	514	509	527	31	0	
15	0	0	0	0	0	513	510	535	32	0	
0	0	0	0	0	1	515	508	524	32	0	
1	0	0	0	0	3	514	510	522	32	0	
2	0	0	0	0	0	512	509	524	32	0	
3	0	0	0	0	0	513	511	514	32	0	
4	0	0	0	0	0	513	509	509	32	0	
5	0	0	0	0	0	515	511	502	32	0	
6	0	0	0	0	0	515	509	493	31	0	
7	0	0	0	0	0	513	509	497	31	0	
8	0	0	0	0	1	513	508	499	31	0	
9	0	0	0	0	3	515	511	496	31	0	
10	0	0	0	0	0	514	512	505	32	0	
11	0	0	0	0	0	513	511	504	32	0	
12	0	0	0	0	0	517	508	510	32	0	
13	0	0	0	0	0	514	510	515	32	0	
14	0	0	0	0	0	515	510	520	32	0	
15	0	0	0	0	0	516	510	523	32	0	
0	0	0	0	0	1	515	510	526	31	0	
1	0	0	0	0	3	513	508	525	32	0	
2	0	0	0	0	0	513	509	522	32	0	
3	0	0	0	0	0	514	508	515	31	0	
4	0	0	0	0	0	513	509	513	31	0	
5	0	0	0	0	0	513	512	509	31	0	
6	0	0	0	0	0	512	509	504	32	0	
7	0	0	0	0	0	512	508	496	32	0	
8	0	0	0	0	0	515	509	496	32	0	
9	0	0	0	0	3	513	511	495	31	0	
10	0	0	0	0	0	513	511	498	31	0	
11	0	0	0	0	0	514	510	506	31	0	
12	0	0	0	0	0	513	509	511	31	0	
13	0	0	0	0	0	513	511	513	32	0	
14	0	0	0	0	0	515	513	519	32	0	
15	0	0	0	0	0	512	513	525	32	0	
0	0	0	0	0	0	513	509	527	31	0	
1	0	0	0	0	4	513	507	520	31	0	
2	0	0	0	0	0	513	510	514	32	0	
3	0	0	0	0	0	512	508	507	32	0	
4	0	0	0	0	0	514	507	503	32	0	
5	0	0	0	0	0	514	508	508	32	0	
6	0	0	0	0	0	514	510	503	32	0	
7	0	0	0	0	0	515	511	499	31	0	
8	0	0	0	0	1	514	510	501	32	0	
9	0	0	0	0	4	515	510	497	31	0	
10	0	0	0	0	0	516	515	503	31	0	
11	0	0	0	0	0	516	513	502	32	0	
12	0	0	0	0	0	513	509	500	32	0	
13	0	0	0	0	0	515	511	507	31	0	
14	0	0	0	0	0	513	510	511	32	0	
15	0	0	0	0	0	512	508	518	31	0	
0	0	0	0	0	1	513	507	519	32	0	
1	0	0	0	0	3	515	510	523	32	0	
2	0	0	0	0	0	514	511	522	31	0	
3	0	0	0	0	0	515	508	525	32	0	
4	0	0	0	0	0	513	511	520	31	0	
5	0	0	0	0	0	515	510	521	32	0	
6	0	0	0	0	0	514	510	514	32	0	
7	0	0	0	0	0	514	512	508	31	0	
8	0	0	0	0	1	516	510	499	31	0	
9	0	0	0	0	3	512	510	497	31	0	
10	0	0	0	0	0	512	509	499	31	0	
11	0	0	0	0	0	512	508	499	32	0	
12	0	0	0	0	0	513	508	506	32	0	
13	0	0	0	0	0	514	509	509	32	0	
14	0	0	0	0	0	512	507	512	31	0	
15	0	0	0	0	0	513	508	515	32	0	
0	0	0	0	0	0	514	508	521	32	0	
1	0	0	0	0	2	514	511	524	32	0	
2	0	0	0	0	0	518	511	518	32	0	
3	0	0	0	0	0	514	513	522	31	0	
4	0	0	0	0	0	511	509	521	32	0	
5	0	0	0	0	0	511	508	522	32	0	
6	0	0	0	0	0	514	511	508	31	0	
7	0	0	0	0	0	514	509	509	31	0	
8	0	0	0	0	0	513	508	507	31	0	
9	0	0	0	0	2	513	508	500	31	0	
10	0	0	0	0	0	515	507	500	31	0	
11	0	0	0	0	0	515	512	506	32	0	
12	0	0	0	0	0	513	509	508	32	0	
13	0	0	0	0	0	512	511	507	32	0	
14	0	0	0	0	0	511	512	510	32	0	
15	0	0	0	0	0	513	510	513	32	0	
0	0	0	0	0	0	514	511	516	32	0	
1	0	0	0	0	2	515	509	523	31	0	
2	0	0	0	0	0	515	508	526	32	0	
3	0	0	0	0	0	515	508	525	32	0	
4	0	0	0	0	0	517	510	525	32	0	
5	0	0	0	0	0	514	510	518	31	0	
6	0	0	0	0	0	512	510	513	31	0	
7	0	0	0	0	0	514	511	512	31	0	
8	0	0	0	0	1	513	507	509	31	0	
9	0	0	0	0	3	512	506	506	32	0	
10	0	0	0	0	0	515	509	503	32	0	
11	0	0	0	0	0	514	508	503	32	0	
12	0	0	0	0	0	513	510	503	31	0	
13	0	0	0	0	0	512	509	499	32	0	
14	0	0	0	0	0	516	508	499	31	0	
15	0	0	0	0	0	514	511	505	31	0	
0	0	0	0	0	0	513	510	511	32	0	
1	0	0	0	0	4	513	512	516	31	0	
2	0	0	0	0	0	515	509	521	32	0	
3	0	0	0	0	0	515	508	529	32	0	
4	0	0	0	0	0	513	512	531	31	0	
5	0	0	0	0	0	512	511	523	32	0	
6	0	0	0	0	0	512	510	515	31	0	
7	0	0	0	0	0	512	508	508	31	0	
8	0	0	0	0	0	513	508	506	32	0	
9	0	0	0	0	4	515	509	505	31	0	
10	0	0	0	0	0	515	511	498	31	0	
11	0	0	0	0	0	514	511	496	32	0	
12	0	0	0	0	0	512	508	494	32	0	
13	0	0	0	0	0	515	508	496	32	0	
14	0	0	0	0	0	512	512	504	32	0	
15	0	0	0	0	0	512	511	504	32	0	
0	0	0	0	0	0	514	512	505	31	0	
1	0	0	0	0	4	513	508	513	31	0	
2	0	0	0	0	0	516	510	513	31	0	
3	0	0	0	0	0	514	511	524	32	0	
4	0	0	0	0	0	515	510	521	31	0	
5	0	0	0	0	0	515	509	521	32	0	
6	0	0	0	0	0	515	508	517	31	0	
7	0	0	0	0	0	515	510	521	32	0	
8	0	0	0	0	0	513	510	510	32	0	
9	0	0	0	0	4	511	510	506	31	0	
10	0	0	0	0	0	512	510	510	32	0	
11	0	0	0	0	0	514	508	505	32	0	
12	0	0	0	0	0	515	511	501	32	0	
13	0	0	0	0	0	516	512	501	32	0	
14	0	0	0	0	0	515	510	499	32	0	
15	0	0	0	0	0	514	509	499	32	0	
0	0	0	0	0	1	513	510	504	31	0	
1	0	0	0	0	3	513	511	510	31	0	
2	0	0	0	0	0	512	509	515	31	0	
3	0	0	0	0	0	513	508	525	32	0	
4	0	0	0	0	0	515	510	525	32	0	
5	0	0	0	0	0	515	508	521	32	0	
6	0	0	0	0	0	512	511	518	31	0	
7	0	0	0	0	0	513	511	520	31	0	
8	0	0	0	0	0	515	513	516	31	0	
9	0	0	0	0	3	514	512	513	31	0	
10	0	0	0	0	0	512	511	506	32	0	
11	0	0	0	0	0	513	510	502	31	0	
12	0	0	0	0	0	512	509	499	31	0	
13	0	0	0	0	0	510	507	498	32	0	
14	0	0	0	0	0	513	508	495	32	0	
15	0	0	0	0	0	513	511	504	31	0	
0	0	0	0	0	0	515	509	502	32	0	
1	0	0	0	0	4	514	508	507	32	0	
2	0	0	0	0	0	515	510	508	31	0	
3	0	0	0	0	0	514	511	516	32	0	
4	0	0	0	0	0	515	509	520	31	0	
5	0	0	0	0	0	516	510	524	32	0	
6	0	0	0	0	0	512	511	519	31	0	
7	0	0	0	0	0	513	511	515	32	0	
8	0	0	0	0	1	512	510	515	32	0	
9	0	0	0	0	4	513	510	511	31	0	
10	0	0	0	0	0	514	510	513	32	0	
11	0	0	0	0	0	515	508	507	32	0	
12	0	0	0	0	0	514	508	508	32	0	
13	0	0	0	0	0	513	510	501	32	0	
14	0	0	0	0	0	514	508	493	31	0	
15	0	0	0	0	0	513	509	496	31	0	
0	0	0	0	0	0	512	509	494	31	0	
1	0	0	0	0	3	512	509	502	32	0	
2	0	0	0	0	0	514	510	511	32	0	
3	0	0	0	0	0	513	511	514	31	0	
4	0	0	0	0	0	515	511	518	31	0	
5	0	0	0	0	0	513	511	518	32	0	
6	0	0	0	0	0	515	512	522	32	0	
7	0	0	0	0	0	515	510	521	32	0	
8	0	0	0	0	1	514	508	518	32	0	
9	0	0	0	0	3	513	508	512	31	0	
10	0	0	0	0	0	516	511	509	32	0	
11	0	0	0	0	0	515	508	505	32	0	
12	0	0	0	0	0	513	510	500	32	0	
13	0	0	0	0	0	514	509	501	32	0	
14	0	0	0	0	0	513	508	496	32	0	
15	0	0	0	0	0	516	509	497	31	0	
0	0	0	0	0	0	515	510	496	31	0	
1	0	0	0	0	1	514	512	504	31	0	
2	0	0	0	0	0	512	511	507	31	0	
3	0	0	0	0	0	512	512	504	31	0	
4	0	0	0	0	0	512	510	510	32	0	
5	0	0	0	0	0	513	509	515	32	0	
6	0	0	0	0	0	514	508	524	32	0	
7	0	0	0	0	0	513	508	520	32	0	
8	0	0	0	0	0	515	512	521	32	0	
9	0	0	0	0	1	515	510	519	32	0	
10	0	0	0	0	0	517	508	513	32	0	
11	0	0	0	0	0	516	505	507	32	0	
12	0	0	0	0	0	510	512	509	32	0	
13	0	0	0	0	0	510	509	502	32	0	
14	0	0	0	0	0	513	509	504	31	0	
15	0	0	0	0	0	517	509	496	31	0	
0	0	0	0	0	0	513	513	498	31	0	
1	0	0	0	0	4	511	509	502	32	0	
2	0	0	0	0	0	514	509	504	32	0	
3	0	0	0	0	0	512	508	508	32	0	
4	0	0	0	0	0	514	509	509	32	0	
5	0	0	0	0	0	514	511	510	32	0	
6	0	0	0	0	0	512	512	519	31	0	
7	0	0	0	0	0	513	511	520	31	0	
8	0	0	0	0	1	515	510	521	31	0	
9	0	0	0	0	3	515	511	521	31	0	
10	0	0	0	0	0	514	511	521	31	0	
11	0	0	0	0	0	513	509	515	31	0	
12	0	0	0	0	0	514	509	513	31	0	
13	0	0	0	0	0	515	508	508	32	0	
14	0	0	0	0	0	517	508	502	32	0	
15	0	0	0	0	0	516	511	501	32	0	
0	0	0	0	0	1	516	510	503	32	0	
1	0	0	0	0	3	513	509	500	31	0	
2	0	0	0	0	0	515	510	500	31	0	
3	0	0	0	0	0	515	510	506	31	0	
4	0	0	0	0	0	511	510	512	32	0	
5	0	0	0	0	0	513	511	515	32	0	
6	0	0	0	0	0	513	508	517	31	0	
7	0	0	0	0	0	511	509	526	32	0	
8	0	0	0	0	0	514	510	522	32	0	
9	0	0	0	0	4	513	508	520	31	0	
10	0	0	0	0	0	515	509	520	32	0	
11	0	0	0	0	0	513	508	515	32	0	
12	0	0	0	0	0	514	508	515	31	0	
13	0	0	0	0	0	516	508	513	32	0	
14	0	0	0	0	0	513	508	508	32	0	
15	0	0	0	0	0	513	510	506	31	0	
0	0	0	0	0	0	514	511	499	31	0	
1	0	0	0	0	4	512	513	499	31	0	
2	0	0	0	0	0	518	511	497	31	0	
3	0	0	0	0	0	517	509	499	32	0	
4	0	0	0	0	0	507	510	502	32	0	
5	0	0	0	0	0	512	511	504	32	0	
6	0	0	0	0	0	511	510	513	31	0	
7	0	0	0	0	0	514	512	518	31	0	
8	0	0	0	0	0	520	512	521	31	0	
9	0	0	0	0	4	512	511	520	31	0	
10	0	0	0	0	0	510	510	526	32	0	
11	0	0	0	0	0	513	507	514	32	0	
12	0	0	0	0	0	516	508	512	31	0	
13	0	0	0	0	0	512	511	509	31	0	
14	0	0	0	0	0	514	508	511	32	0	
15	0	0	0	0	0	512	511	504	32	0	
0	0	0	0	0	1	515	511	495	32	0	
1	0	0	0	0	3	514	509	496	31	0	
2	0	0	0	0	0	513	510	499	32	0	
3	0	0	0	0	0	514	509	504	32	0	
4	0	0	0	0	0	513	511	505	31	0	
5	0	0	0	0	0	512	510	511	32	0	
6	0	0	0	0	0	513	508	508	32	0	
7	0	0	0	0	0	516	510	515	31	0	
8	0	0	0	0	0	516	507	517	31	0	
9	0	0	0	0	3	513	508	521	31	0	
10	0	0	0	0	0	512	510	526	32	0	
11	0	0	0	0	0	513	508	521	32	0	
12	0	0	0	0	0	515	509	518	32	0	
13	0	0	0	0	0	515	512	516	32	0	
14	0	0	0	0	0	514	510	511	32	0	
15	0	0	0	0	0	515	510	510	31	0	
0	0	0	0	0	0	517	508	499	31	0	
1	0	0	0	0	3	512	510	502	31	0	
2	0	0	0	0	0	512	508	503	31	0	
3	0	0	0	0	0	513	510	500	31	0	
4	0	0	0	0	0	514	513	499	31	0	
5	0	0	0	0	0	517	511	500	31	0	
6	0	0	0	0	0	515	510	508	32	0	
7	0	0	0	0	0	511	510	514	32	0	
8	0	0	0	0	0	515	509	511	31	0	
9	0	0	0	0	3	512	510	517	31	0	
10	0	0	0	0	0	508	509	524	32	0	
11	0	0	0	0	0	511	509	527	32	0	
12	0	0	0	0	0	513	508	521	32	0	
13	0	0	0	0	0	517	506	511	32	0	
14	0	0	0	0	0	519	510	508	32	0	
15	0	0	0	0	0	515	510	507	32	0	
0	0	0	0	0	0	515	510	498	32	0	
1	0	0	0	0	4	513	510	497	31	0	
2	0	0	0	0	0	513	510	492	32	0	
3	0	0	0	0	0	513	512	493	32	0	
4	0	0	0	0	0	512	511	500	32	0	
5	0	0	0	0	0	513	511	502	32	0	
6	0	0	0	0	0	512	507	512	31	0	
7	0	0	0	0	0	515	511	514	31	0	
8	0	0	0	0	0	514	506	516	31	0	
9	0	0	0	0	2	513	511	522	32	0	
10	0	0	0	0	0	513	509	521	32	0	
11	0	0	0	0	0	515	508	525	31	0	
12	0	0	0	0	0	519	509	521	32	0	
13	0	0	0	0	0	512	509	518	32	0	
14	0	0	0	0	0	508	510	513	31	0	
15	0	0	0	0	0	514	512	510	32	0	
0	0	0	0	0	0	512	511	507	32	0	
1	0	0	0	0	2	515	510	501	32	0	
2	0	0	0	0	0	515	510	496	32	0	
3	0	0	0	0	0	513	510	494	31	0	
4	0	0	0	0	0	517	510	495	31	0	
5	0	0	0	0	0	515	509	501	31	0	
6	0	0	0	0	0	512	509	504	32	0	
7	0	0	0	0	0	511	510	509	31	0	
8	0	0	0	0	0	512	509	510	31	0	
9	0	0	0	0	2	517	512	516	31	0	
10	0	0	0	0	0	514	511	520	32	0	
11	0	0	0	0	0	514	509	525	31	0	
12	0	0	0	0	0	515	509	523	32	0	
13	0	0	0	0	0	516	508	520	32	0	
14	0	0	0	0	0	518	511	519	32	0	
15	0	0	0	0	0	511	509	515	32	0	
0	0	0	0	0	0	515	510	504	32	0	
1	0	0	0	0	3	515	510	501	31	0	
2	0	0	0	0	0	510	508	497	32	0	
3	0	0	0	0	0	512	511	499	32	0	
4	0	0	0	0	0	513	508	500	31	0	
5	0	0	0	0	0	514	511	497	31	0	
6	0	0	0	0	0	514	510	496	31	0	
7	0	0	0	0	0	515	508	497	31	0	
8	0	0	0	0	0	513	508	501	32	0	
9	0	0	0	0	4	512	509	511	32	0	
10	0	0	0	0	0	516	510	516	32	0	
11	0	0	0	0	0	512	509	519	32	0	
12	0	0	0	0	0	516	510	521	32	0	
13	0	0	0	0	0	515	508	525	32	0	
14	0	0	0	0	0	514	508	522	32	0	
15	0	0	0	0	0	514	510	511	31	0	
0	0	0	0	0	1	514	512	507	31	0	
1	0	0	0	0	3	514	512	510	31	0	
2	0	0	0	0	0	514	510	504	31	0	
3	0	0	0	0	0	515	510	500	32	0	
4	0	0	0	0	0	515	512	498	32	0	
5	0	0	0	0	0	515	511	498	32	0	
6	0	0	0	0	0	514	511	500	31	0	
7	0	0	0	0	0	513	510	502	31	0	
8	0	0	0	0	0	513	509	507	31	0	
9	0	0	0	0	3	513	509	502	31	0	
10	0	0	0	0	0	515	507	508	31	0	
11	0	0	0	0	0	514	508	515	31	0	
12	0	0	0	0	0	513	508	517	31	0	
13	0	0	0	0	0	515	509	525	32	0	
14	0	0	0	0	0	515	508	523	32	0	
15	0	0	0	0	0	513	508	518	32	0	
0	0	0	0	0	0	514	507	516	32	0	
1	0	0	0	0	4	512	511	512	31	0	
2	0	0	0	0	0	514	511	512	31	0	
3	0	0	0	0	0	514	509	500	31	0	
4	0	0	0	0	0	513	512	503	32	0	
5	0	0	0	0	0	515	513	500	32	0	
6	0	0	0	0	0	515	512	499	32	0	
7	0	0	0	0	0	512	511	493	31	0	
8	0	0	0	0	1	512	510	497	32	0	
9	0	0	0	0	4	512	510	504	31	0	
10	0	0	0	0	0	514	512	507	31	0	
11	0	0	0	0	0	513	510	513	31	0	
12	0	0	0	0	0	512	507	519	31	0	
13	0	0	0	0	0	513	507	519	32	0	
14	0	0	0	0	0	513	509	524	32	0	
15	0	0	0	0	0	511	507	519	32	0	
0	0	0	0	0	0	513	510	518	32	0	
1	0	0	0	0	4	515	510	513	32	0	
2	0	0	0	0	0	514	509	504	32	0	
3	0	0	0	0	0	515	512	504	32	0	
4	0	0	0	0	0	514	513	500	32	0	
5	0	0	0	0	0	515	510	500	32	0	
6	0	0	0	0	0	514	511	499	31	0	
7	0	0	0	0	0	513	510	494	31	0	
8	0	0	0	0	0	511	510	497	31	0	
9	0	0	0	0	3	512	510	502	31	0	
10	0	0	0	0	0	515	510	508	32	0	
11	0	0	0	0	0	513	509	515	32	0	
12	0	0	0	0	0	513	510	515	31	0	
13	0	0	0	0	0	513	508	521	32	0	
14	0	0	0	0	0	514	508	524	31	0	
15	0	0	0	0	0	514	511	521	31	0	
0	0	0	0	0	1	513	510	520	32	0	
1	0	0	0	0	3	513	510	515	32	0	
2	0	0	0	0	0	515	509	517	32	0	
3	0	0	0	0	0	516	509	510	32	0	
4	0	0	0	0	0	515	508	507	32	0	
5	0	0	0	0	0	512	508	502	32	0	
6	0	0	0	0	0	512	509	495	32	0	
7	0	0	0	0	0	513	509	494	31	0	
8	0	0	0	0	1	515	508	496	31	0	
9	0	0	0	0	3	512	509	499	31	0	
10	0	0	0	0	0	514	511	507	31	0	
11	0	0	0	0	0	515	510	512	32	0	
12	0	0	0	0	0	514	511	513	32	0	
13	0	0	0	0	0	516	510	516	32	0	
14	0	0	0	0	0	515	511	519	31	0	
15	0	0	0	0	0	515	509	518	31	0	
0	0	0	0	0	1	516	511	519	32	0	
1	0	0	0	0	3	514	508	515	31	0	
2	0	0	0	0	0	515	512	515	32	0	
3	0	0	0	0	0	515	512	516	31	0	
4	0	0	0	0	0	513	509	508	32	0	
5	0	0	0	0	0	512	510	499	32	0	
6	0	0	0	0	0	513	508	497	31	0	
7	0	0	0	0	0	512	510	492	32	0	
8	0	0	0	0	0	511	510	496	32	0	
9	0	0	0	0	1	513	509	498	32	0	
10	0	0	0	0	0	512	510	501	31	0	
11	0	0	0	0	0	515	508	505	32	0	
12	0	0	0	0	0	512	511	511	31	0	
13	0	0	0	0	0	514	510	518	32	0	
14	0	0	0	0	0	513	509	521	31	0	
15	0	0	0	0	0	512	510	526	31	0	
0	0	0	0	0	0	513	510	524	32	0	
1	0	0	0	0	1	513	510	523	31	0	
2	0	0	0	0	0	514	510	518	32	0	
3	0	0	0	0	0	515	511	515	32	0	
4	0	0	0	0	0	516	511	511	31	0	
5	0	0	0	0	0	516	510	511	32	0	
6	0	0	0	0	0	515	508	500	32	0	
7	0	0	0	0	0	513	509	494	32	0	
8	0	0	0	0	0	513	508	492	32	0	
9	0	0	0	0	1	512	509	496	31	0	
10	0	0	0	0	0	513	509	499	32	0	
11	0	0	0	0	0	515	511	503	31	0	
12	0	0	0	0	0	513	509	504	31	0	
13	0	0	0	0	0	514	510	508	32	0	
14	0	0	0	0	0	514	510	512	31	0	
15	0	0	0	0	0	514	510	520	31	0	
0	0	0	0	0	1	512	509	522	32	0	
1	0	0	0	0	4	514	508	521	31	0	
2	0	0	0	0	0	513	509	516	32	0	
3	0	0	0	0	0	513	510	509	32	0	
4	0	0	0	0	0	515	511	508	32	0	
5	0	0	0	0	0	514	511	504	32	0	
6	0	0	0	0	0	515	512	500	32	0	
7	0	0	0	0	0	516	512	494	32	0	
8	0	0	0	0	0	514	511	487	31	0	
9	0	0	0	0	4	514	510	495	31	0	
10	0	0	0	0	0	512	510	499	32	0	
11	0	0	0	0	0	515	508	501	31	0	
12	0	0	0	0	0	514	512	505	32	0	
13	0	0	0	0	0	515	510	514	32	0	
14	0	0	0	0	0	514	508	516	31	0	
15	0	0	0	0	0	515	509	518	32	0	
0	0	0	0	0	0	515	510	524	31	0	
1	0	0	0	0	4	513	508	531	32	0	
2	0	0	0	0	0	511	509	526	32	0	
3	0	0	0	0	0	512	510	520	32	0	
4	0	0	0	0	0	514	508	514	32	0	
5	0	0	0	0	0	513	509	510	32	0	
6	0	0	0	0	0	512	509	507	31	0	
7	0	0	0	0	0	513	508	498	31	0	
8	0	0	0	0	1	514	509	491	31	0	
9	0	0	0	0	4	513	507	492	32	0	
10	0	0	0	0	0	512	511	499	32	0	
11	0	0	0	0	0	512	509	499	32	0	
12	0	0	0	0	0	515	512	502	32	0	
13	0	0	0	0	0	513	511	501	32	0	
14	0	0	0	0	0	513	512	503	32	0	
15	0	0	0	0	0	514	511	511	32	0	
0	0	0	0	0	1	515	508	519	31	0	
1	0	0	0	0	4	514	510	524	32	0	
2	0	0	0	0	0	513	511	518	31	0	
3	0	0	0	0	0	512	510	517	31	0	
4	0	0	0	0	0	512	512	516	31	0	
5	0	0	0	0	0	514	512	506	31	0	
6	0	0	0	0	0	516	511	506	31	0	
7	0	0	0	0	0	514	510	503	31	0	
8	0	0	0	0	0	514	510	498	32	0	
9	0	0	0	0	4	515	506	496	32	0	
10	0	0	0	0	0	513	510	495	32	0	
11	0	0	0	0	0	513	511	492	32	0	
12	0	0	0	0	0	514	509	496	32	0	
13	0	0	0	0	0	518	514	502	32	0	
14	0	0	0	0	0	516	512	505	32	0	
15	0	0	0	0	0	514	511	513	32	0	
0	0	0	0	0	0	512	509	518	32	0	
1	0	0	0	0	4	511	510	526	32	0	
2	0	0	0	0	0	514	508	524	32	0	
3	0	0	0	0	0	516	510	527	32	0	
4	0	0	0	0	0	515	508	520	32	0	
5	0	0	0	0	0	516	508	514	32	0	
6	0	0	0	0	0	514	507	514	32	0	
7	0	0	0	0	0	513	508	510	32	0	
8	0	0	0	0	0	512	509	506	31	0	
9	0	0	0	0	4	510	508	497	31	0	
10	0	0	0	0	0	512	506	495	32	0	
11	0	0	0	0	0	513	508	498	32	0	
12	0	0	0	0	0	513	510	501	31	0	
13	0	0	0	0	0	514	511	505	31	0	
14	0	0	0	0	0	512	509	507	31	0	
15	0	0	0	0	0	512	509	511	31	0	
0	0	0	0	0	1	511	507	510	31	0	
1	0	0	0	0	4	512	510	516	31	0	
2	0	0	0	0	0	515	510	518	31	0	
3	0	0	0	0	0	515	509	518	31	0	
4	0	0	0	0	0	513	510	519	31	0	
5	0	0	0	0	0	513	508	519	31	0	
6	0	0	0	0	0	513	507	510	32	0	
7	0	0	0	0	0	513	507	507	32	0	
8	0	0	0	0	1	515	508	503	31	0	
9	0	0	0	0	3	516	513	493	31	0	
10	0	0	0	0	0	513	510	485	31	0	
11	0	0	0	0	0	516	512	488	31	0	
12	0	0	0	0	0	515	512	490	31	0	
13	0	0	0	0	0	515	510	498	32	0	
14	0	0	0	0	0	516	511	503	31	0	
15	0	0	0	0	0	515	508	505	31	0	
0	0	0	0	0	1	512	509	514	31	0	
1	0	0	0	0	3	511	511	517	31	0	
2	0	0	0	0	0	512	512	522	31	0	
3	0	0	0	0	0	515	510	525	32	0	
4	0	0	0	0	0	514	506	523	32	0	
5	0	0	0	0	0	515	508	519	32	0	
6	0	0	0	0	0	515	507	523	32	0	
7	0	0	0	0	0	512	507	517	32	0	
8	0	0	0	0	0	514	509	512	32	0	
9	0	0	0	0	2	512	509	511	32	0	
10	0	0	0	0	0	514	507	506	32	0	
11	0	0	0	0	0	513	512	498	32	0	
12	0	0	0	0	0	512	511	492	31	0	
13	0	0	0	0	0	513	509	495	31	0	
14	0	0	0	0	0	515	511	499	31	0	
15	0	0	0	0	0	514	512	504	31	0	
0	0	0	0	0	0	515	511	510	31	0	
1	0	0	0	0	2	513	510	505	32	0	
2	0	0	0	0	0	512	513	504	32	0	
3	0	0	0	0	0	515	514	516	32	0	
4	0	0	0	0	0	518	511	519	32	0	
5	0	0	0	0	0	519	511	520	32	0	
6	0	0	0	0	0	513	512	518	31	0	
7	0	0	0	0	0	515	512	517	32	0	
8	0	0	0	0	0	512	511	505	32	0	
9	0	0	0	0	4	514	509	502	32	0	
10	0	0	0	0	0	513	511	503	32	0	
11	0	0	0	0	0	510	508	499	32	0	
12	0	0	0	0	0	511	505	491	32	0	
13	0	0	0	0	0	513	507	496	32	0	
14	0	0	0	0	0	513	507	493	32	0	
15	0	0	0	0	0	515	509	503	32	0	
0	0	0	0	0	1	516	508	507	32	0	
1	0	0	0	0	4	517	510	511	31	0	
2	0	0	0	0	0	515	511	512	31	0	
3	0	0	0	0	0	510	509	519	31	0	
4	0	0	0	0	0	512	510	527	32	0	
5	0	0	0	0	0	518	510	522	32	0	
6	0	0	0	0	0	517	515	521	31	0	
7	0	0	0	0	0	516	510	523	32	0	
8	0	0	0	0	0	515	507	517	32	0	
9	0	0	0	0	3	513	508	511	32	0	
10	0	0	0	0	0	511	511	504	31	0	
11	0	0	0	0	0	512	511	502	31	0	
12	0	0	0	0	0	514	512	496	31	0	
13	0	0	0	0	0	513	511	491	31	0	
14	0	0	0	0	0	513	508	496	31	0	
15	0	0	0	0	0	513	509	499	31	0	
0	0	0	0	0	0	509	509	501	32	0	
1	0	0	0	0	4	507	509	508	32	0	
2	0	0	0	0	0	510	507	511	32	0	
3	0	0	0	0	0	515	509	516	32	0	
4	0	0	0	0	0	515	511	519	31	0	
5	0	0	0	0	0	515	511	520	31	0	
6	0	0	0	0	0	517	508	519	32	0	
7	0	0	0	0	0	515	509	520	31	0	
8	0	0	0	0	0	512	510	521	32	0	
9	0	0	0	0	4	513	510	524	31	0	
10	0	0	0	0	0	515	513	522	31	0	
11	0	0	0	0	0	513	513	507	31	0	
12	0	0	0	0	0	512	512	497	31	0	
13	0	0	0	0	0	515	510	491	32	0	
14	0	0	0	0	0	514	511	491	32	0	
15	0	0	0	0	0	512	508	494	32	0	
0	0	0	0	0	0	515	507	494	32	0	
1	0	0	0	0	3	516	508	496	31	0	
2	0	0	0	0	0	515	507	503	32	0	
3	0	0	0	0	0	514	510	510	31	0	
4	0	0	0	0	0	512	511	525	32	0	
5	0	0	0	0	0	517	509	521	32	0	
6	0	0	0	0	0	519	511	519	31	0	
7	0	0	0	0	0	515	511	523	31	0	
8	0	0	0	0	1	512	511	521	31	0	
9	0	0	0	0	4	515	509	521	31	0	
10	0	0	0	0	0	519	509	508	31	0	
11	0	0	0	0	0	516	510	509	32	0	
12	0	0	0	0	0	514	513	510	31	0	
13	0	0	0	0	0	511	511	503	31	0	
14	0	0	0	0	0	515	510	508	32	0	
15	0	0	0	0	0	514	508	508	32	0	
0	0	0	0	0	0	511	508	502	31	0	
1	0	0	0	0	3	513	512	504	31	0	
2	0	0	0	0	0	514	509	507	31	0	
3	0	0	0	0	0	513	509	513	32	0	
4	0	0	0	0	0	515	510	515	32	0	
5	0	0	0	0	0	512	510	519	32	0	
6	0	0	0	0	0	513	510	519	31	0	
7	0	0	0	0	0	516	511	517	31	0	
8	0	0	0	0	0	519	511	522	31	0	
9	0	0	0	0	4	516	509	524	32	0	
10	0	0	0	0	0	507	511	523	31	0	
11	0	0	0	0	0	506	511	523	32	0	
12	0	0	0	0	0	513	515	517	31	0	
13	0	0	0	0	0	515	514	517	32	0	
14	0	0	0	0	0	514	512	523	32	0	
15	0	0	0	0	0	512	509	519	32	0	
0	0	0	0	0	0	512	508	512	31	0	
1	0	0	0	0	4	518	505	521	32	0	
2	0	0	0	0	0	514	499	512	32	0	
3	0	0	0	0	0	508	499	519	32	0	
4	0	0	0	0	0	512	504	518	31	0	
5	0	0	0	0	0	514	505	523	31	0	
6	0	0	0	0	0	511	507	521	32	0	
7	0	0	0	0	0	515	510	510	31	0	
8	0	0	0	0	1	514	510	514	32	0	
9	0	0	0	0	3	515	514	510	31	0	
10	0	0	0	0	0	514	510	515	31	0	
11	0	0	0	0	0	516	513	504	31	0	
12	0	0	0	0	0	516	513	499	31	0	
13	0	0	0	0	0	516	510	496	32	0	
14	0	0	0	0	0	520	506	483	32	0	
15	0	0	0	0	0	528	507	478	32	0	
0	0	0	0	0	0	521	510	495	32	0	
1	0	0	0	0	1	511	514	497	32	0	
2	0	0	0	0	0	500	519	492	31	0	
3	0	0	0	0	0	501	516	504	31	0	
4	0	0	0	0	0	511	504	515	33	0	
5	0	0	0	0	0	508	504	510	32	0	
6	0	0	0	0	0	512	508	507	31	0	
7	0	0	0	0	0	516	510	511	30	0	
8	0	0	0	0	0	516	508	504	31	0	
9	0	0	0	0	1	514	513	504	32	0	
10	0	0	0	0	0	518	519	521	32	0	
11	0	0	0	0	0	522	511	517	32	0	
12	0	0	0	0	0	514	497	495	32	0	
13	0	0	0	0	0	508	496	467	31	0	
14	0	0	0	0	0	518	511	468	30	0	
15	0	0	0	0	0	517	514	482	30	0	
0	0	0	0	0	0	508	511	491	32	0	
1	0	0	0	0	1	506	506	487	32	0	
2	0	0	0	0	0	511	507	493	32	0	
3	0	0	0	0	0	515	512	481	32	0	
4	0	0	0	0	0	523	509	469	32	0	
5	0	0	0	0	0	523	506	487	32	0	
6	0	0	0	0	0	514	511	503	32	0	
7	0	0	0	0	0	506	514	497	31	0	
8	0	0	0	0	0	509	510	505	32	0	
9	0	0	0	0	3	513	510	515	32	0	
10	0	0	0	0	0	518	511	510	31	0	
11	0	0	0	0	0	524	521	498	30	0	
12	0	0	0	0	0	517	521	509	30	0	
13	0	0	0	0	0	509	505	525	32	0	
14	0	0	0	0	0	504	499	536	34	0	
15	0	0	0	0	0	520	504	500	32	0	
0	0	0	0	0	1	526	511	500	32	0	
1	0	0	0	0	4	513	511	505	31	0	
2	0	0	0	0	0	513	509	496	31	0	
3	0	0	0	0	0	504	512	499	31	0	
4	0	0	0	0	0	505	514	524	32	0	
5	0	0	0	0	0	510	514	531	32	0	
6	0	0	0	0	0	511	523	526	31	0	
7	0	0	0	0	0	516	515	517	31	0	
8	0	0	0	0	1	516	500	535	32	0	
9	0	0	0	0	3	522	497	519	30	0	
10	0	0	0	0	0	525	505	514	31	0	
11	0	0	0	0	0	512	506	518	33	0	
12	0	0	0	0	0	507	505	507	33	0	
13	0	0	0	0	0	519	506	496	32	0	
14	0	0	0	0	0	512	510	504	31	0	
15	0	0	0	0	0	512	512	514	32	0	
0	0	0	0	0	0	513	518	510	31	0	
1	0	0	0	0	3	516	512	497	31	0	
2	0	0	0	0	0	515	500	510	32	0	
3	0	0	0	0	0	518	502	499	32	0	
4	0	0	0	0	0	507	506	508	32	0	
5	0	0	0	0	0	508	515	493	32	0	
6	0	0	0	0	0	526	531	483	31	0	
7	0	0	0	0	0	519	519	501	31	0	
8	0	0	0	0	0	495	500	504	32	0	
9	0	0	0	0	4	495	491	508	32	0	
10	0	0	0	0	0	509	501	521	31	0	
11	0	0	0	0	0	516	510	533	32	0	
12	0	0	0	0	0	514	512	524	33	0	
13	0	0	0	0	0	515	511	510	32	0	
14	0	0	0	0	0	526	514	491	32	0	
15	0	0	0	0	0	529	506	504	33	0	
0	0	0	0	0	0	521	500	516	33	0	
1	0	0	0	0	4	515	512	475	31	0	
2	0	0	0	0	0	504	521	477	30	0	
3	0	0	0	0	0	502	518	465	30	0	
4	0	0	0	0	0	507	504	472	32	0	
5	0	0	0	0	0	509	504	486	32	0	
6	0	0	0	0	0	518	505	476	32	0	
7	0	0	0	0	0	515	512	495	32	0	
8	0	0	0	0	0	513	510	476	30	0	
9	0	0	0	0	4	513	511	460	30	0	
10	0	0	0	0	0	512	505	481	31	0	
11	0	0	0	0	0	523	508	481	31	0	
12	0	0	0	0	0	523	517	482	30	0	
13	0	0	0	0	0	521	511	481	31	0	
14	0	0	0	0	0	524	514	477	31	0	
15	0	0	0	0	0	500	513	484	31	0	
0	0	0	0	0	1	503	500	466	31	0	
1	0	0	0	0	3	504	503	461	31	0	
2	0	0	0	0	0	507	504	489	32	0	
3	0	0	0	0	0	514	515	490	31	0	
4	0	0	0	0	0	519	521	475	31	0	
5	0	0	0	0	0	515	513	481	33	0	
6	0	0	0	0	0	514	514	485	33	0	
7	0	0	0	0	0	520	508	471	33	0	
8	0	0	0	0	1	527	507	463	31	0	
9	0	0	0	0	3	526	508	475	32	0	
10	0	0	0	0	0	511	506	488	32	0	
11	0	0	0	0	0	510	505	489	31	0	
12	0	0	0	0	0	509	508	499	31	0	
13	0	0	0	0	0	504	515	504	31	0	
14	0	0	0	0	0	502	515	525	32	0	
15	0	0	0	0	0	524	504	508	32	0	
0	0	0	0	0	1	527	511	502	31	0	
1	0	0	0	0	3	523	515	480	31	0	
2	0	0	0	0	0	505	502	488	31	0	
3	0	0	0	0	0	505	510	496	32	0	
4	0	0	0	0	0	507	515	498	32	0	
5	0	0	0	0	0	508	509	492	32	0	
6	0	0	0	0	0	506	500	514	33	0	
7	0	0	0	0	0	513	507	509	31	0	
8	0	0	0	0	1	531	512	507	31	0	
9	0	0	0	0	4	526	519	518	31	0	
10	0	0	0	0	0	506	512	510	31	0	
11	0	0	0	0	0	490	505	529	32	0	
12	0	0	0	0	0	515	504	522	32	0	
13	0	0	0	0	0	511	509	532	32	0	
14	0	0	0	0	0	520	514	537	31	0	
15	0	0	0	0	0	516	515	543	31	0	
0	0	0	0	0	1	516	515	541	32	0	
1	0	0	0	0	2	517	508	533	31	0	
2	0	0	0	0	0	515	502	525	31	0	
3	0	0	0	0	0	516	506	522	31	0	
4	0	0	0	0	0	519	507	520	32	0	
5	0	0	0	0	0	522	511	513	32	0	
6	0	0	0	0	0	515	510	507	31	0	
7	0	0	0	0	0	512	515	513	31	0	
8	0	0	0	0	0	511	512	525	31	0	
9	0	0	0	0	2	514	510	527	31	0	
10	0	0	0	0	0	512	512	539	31	0	
11	0	0	0	0	0	510	508	549	32	0	
12	0	0	0	0	0	509	504	558	32	0	
13	0	0	0	0	0	508	503	563	32	0	
14	0	0	0	0	0	511	505	561	32	0	
15	0	0	0	0	0	514	510	560	32	0	
0	0	0	0	0	0	514	508	549	32	0	
1	0	0	0	0	2	513	509	535	31	0	
2	0	0	0	0	0	512	511	530	31	0	
3	0	0	0	0	0	515	512	518	31	0	
4	0	0	0	0	0	516	514	516	31	0	
5	0	0	0	0	0	515	510	513	31	0	
6	0	0	0	0	0	515	509	515	31	0	
7	0	0	0	0	0	516	512	520	31	0	
8	0	0	0	0	0	515	511	518	32	0	
9	0	0	0	0	4	515	510	530	32	0	
10	0	0	0	0	0	514	510	531	32	0	
11	0	0	0	0	0	512	511	539	32	0	
12	0	0	0	0	0	514	510	545	32	0	
13	0	0	0	0	0	514	511	547	31	0	
14	0	0	0	0	0	512	510	550	31	0	
15	0	0	0	0	0	513	510	548	31	0	
0	0	0	0	0	1	515	508	538	31	0	
1	0	0	0	0	3	512	509	536	31	0	
2	0	0	0	0	0	513	507	525	32	0	
3	0	0	0	0	0	516	508	526	31	0	
4	0	0	0	0	0	515	509	520	31	0	
5	0	0	0	0	0	514	511	514	31	0	
6	0	0	0	0	0	513	510	508	31	0	
7	0	0	0	0	0	511	509	510	32	0	
8	0	0	0	0	1	512	510	515	32	0	
9	0	0	0	0	3	515	510	518	32	0	
10	0	0	0	0	0	515	511	524	32	0	
11	0	0	0	0	0	515	513	523	32	0	
12	0	0	0	0	0	516	511	529	31	0	
13	0	0	0	0	0	516	509	539	31	0	
14	0	0	0	0	0	514	510	543	31	0	
15	0	0	0	0	0	515	508	540	32	0	
0	0	0	0	0	1	514	510	537	32	0	
1	0	0	0	0	3	513	510	536	31	0	
2	0	0	0	0	0	512	510	537	31	0	
3	0	0	0	0	0	511	508	529	31	0	
4	0	0	0	0	0	512	510	531	31	0	
5	0	0	0	0	0	515	509	523	32	0	
6	0	0	0	0	0	518	511	521	31	0	
7	0	0	0	0	0	515	511	524	31	0	
8	0	0	0	0	0	514	508	526	32	0	
9	0	0	0	0	4	514	508	531	32	0	
10	0	0	0	0	0	511	509	537	32	0	
11	0	0	0	0	0	513	508	532	32	0	
12	0	0	0	0	0	515	508	542	32	0	
13	0	0	0	0	0	515	508	543	32	0	
14	0	0	0	0	0	516	511	544	31	0	
15	0	0	0	0	0	513	510	541	31	0	
0	0	0	0	0	1	513	508	544	31	0	
1	0	0	0	0	3	513	504	543	32	0	
2	0	0	0	0	0	518	507	544	32	0	
3	0	0	0	0	0	517	510	535	32	0	
4	0	0	0	0	0	506	510	532	32	0	
5	0	0	0	0	0	511	513	526	31	0	
6	0	0	0	0	0	513	512	519	31	0	
7	0	0	0	0	0	514	513	513	31	0	
8	0	0	0	0	0	516	513	507	31	0	
9	0	0	0	0	4	516	512	512	31	0	
10	0	0	0	0	0	515	511	509	31	0	
11	0	0	0	0	0	515	510	518	31	0	
12	0	0	0	0	0	515	509	525	32	0	
13	0	0	0	0	0	510	508	536	32	0	
14	0	0	0	0	0	513	509	540	31	0	
15	0	0	0	0	0	513	509	537	32	0	
0	0	0	0	0	0	515	508	541	32	0	
1	0	0	0	0	3	512	508	537	32	0	
2	0	0	0	0	0	513	507	540	32	0	
3	0	0	0	0	0	513	510	531	31	0	
4	0	0	0	0	0	514	511	524	31	0	
5	0	0	0	0	0	515	512	522	31	0	
6	0	0	0	0	0	515	512	520	31	0	
7	0	0	0	0	0	516	512	515	31	0	
8	0	0	0	0	1	511	510	511	32	0	
9	0	0	0	0	3	514	508	510	32	0	
10	0	0	0	0	0	518	509	511	32	0	
11	0	0	0	0	0	514	509	515	32	0	
12	0	0	0	0	0	516	511	519	32	0	
13	0	0	0	0	0	517	507	517	32	0	
14	0	0	0	0	0	513	507	522	31	0	
15	0	0	0	0	0	512	509	533	31	0	
0	0	0	0	0	1	511	511	538	31	0	
1	0	0	0	0	4	512	512	536	31	0	
2	0	0	0	0	0	512	512	530	31	0	
3	0	0	0	0	0	513	511	521	31	0	
4	0	0	0	0	0	513	511	509	31	0	
5	0	0	0	0	0	513	510	512	31	0	
6	0	0	0	0	0	514	510	510	32	0	
7	0	0	0	0	0	515	507	499	32	0	
8	0	0	0	0	1	514	508	498	32	0	
9	0	0	0	0	3	515	509	487	32	0	
10	0	0	0	0	0	514	509	493	32	0	
11	0	0	0	0	0	516	508	499	32	0	
12	0	0	0	0	0	511	510	499	31	0	
13	0	0	0	0	0	510	511	507	32	0	
14	0	0	0	0	0	514	511	515	32	0	
15	0	0	0	0	0	514	511	516	32	0	
0	0	0	0	0	0	518	510	517	32	0	
1	0	0	0	0	1	515	509	519	31	0	
2	0	0	0	0	0	513	510	515	31	0	
3	0	0	0	0	0	511	511	517	31	0	
4	0	0	0	0	0	512	508	508	32	0	
5	0	0	0	0	0	513	507	508	32	0	
6	0	0	0	0	0	513	510	504	31	0	
7	0	0	0	0	0	513	510	494	32	0	
8	0	0	0	0	0	515	510	499	32	0	
9	0	0	0	0	1	512	510	496	31	0	
10	0	0	0	0	0	514	507	496	31	0	
11	0	0	0	0	0	511	510	490	32	0	
12	0	0	0	0	0	514	509	492	32	0	
13	0	0	0	0	0	514	509	505	32	0	
14	0	0	0	0	0	516	512	504	31	0	
15	0	0	0	0	0	516	512	508	31	0	
0	0	0	0	0	1	516	511	515	31	0	
1	0	0	0	0	3	515	511	508	31	0	
2	0	0	0	0	0	514	509	517	32	0	
3	0	0	0	0	0	515	509	517	32	0	
4	0	0	0	0	0	513	508	515	32	0	
5	0	0	0	0	0	512	507	508	32	0	
6	0	0	0	0	0	513	510	509	32	0	
7	0	0	0	0	0	514	512	505	31	0	
8	0	0	0	0	0	512	512	496	31	0	
9	0	0	0	0	4	514	510	494	31	0	
10	0	0	0	0	0	513	509	490	31	0	
11	0	0	0	0	0	511	510	494	32	0	
12	0	0	0	0	0	513	510	497	32	0	
13	0	0	0	0	0	511	511	502	32	0	
14	0	0	0	0	0	512	511	502	31	0	
15	0	0	0	0	0	513	510	506	31	0	
0	0	0	0	0	0	513	511	506	31	0	
1	0	0	0	0	4	514	510	515	31	0	
2	0	0	0	0	0	515	510	522	32	0	
3	0	0	0	0	0	516	510	522	32	0	
4	0	0	0	0	0	514	510	522	32	0	
5	0	0	0	0	0	515	510	516	32	0	
6	0	0	0	0	0	515	509	519	32	0	
7	0	0	0	0	0	515	508	510	32	0	
8	0	0	0	0	0	514	509	504	32	0	
9	0	0	0	0	4	513	508	498	32	0	
10	0	0	0	0	0	512	510	497	32	0	
11	0	0	0	0	0	513	511	490	31	0	
12	0	0	0	0	0	513	509	497	31	0	
13	0	0	0	0	0	513	507	505	32	0	
14	0	0	0	0	0	512	509	510	32	0	
15	0	0	0	0	0	512	510	514	32	0	
0	0	0	0	0	1	515	512	518	32	0	
1	0	0	0	0	3	512	508	521	32	0	
2	0	0	0	0	0	513	511	529	32	0	
3	0	0	0	0	0	513	510	529	32	0	
4	0	0	0	0	0	514	510	529	31	0	
5	0	0	0	0	0	513	508	523	32	0	
6	0	0	0	0	0	512	508	519	32	0	
7	0	0	0	0	0	514	512	513	32	0	
8	0	0	0	0	1	514	510	506	31	0	
9	0	0	0	0	3	515	511	499	31	0	
10	0	0	0	0	0	515	510	495	32	0	
11	0	0	0	0	0	513	511	491	31	0	
12	0	0	0	0	0	513	510	492	32	0	
13	0	0	0	0	0	511	510	495	32	0	
14	0	0	0	0	0	514	511	493	32	0	
15	0	0	0	0	0	514	511	495	31	0	
0	0	0	0	0	0	515	509	491	31	0	
1	0	0	0	0	4	513	508	499	32	0	
2	0	0	0	0	0	513	508	508	32	0	
3	0	0	0	0	0	516	509	513	32	0	
4	0	0	0	0	0	518	510	515	31	0	
5	0	0	0	0	0	516	510	517	32	0	
6	0	0	0	0	0	515	512	512	32	0	
7	0	0	0	0	0	518	511	507	31	0	
8	0	0	0	0	0	515	511	500	31	0	
9	0	0	0	0	3	513	510	499	31	0	
10	0	0	0	0	0	513	510	495	31	0	
11	0	0	0	0	0	512	508	495	32	0	
12	0	0	0	0	0	513	506	494	32	0	
13	0	0	0	0	0	513	505	496	32	0	
14	0	0	0	0	0	512	509	501	32	0	
15	0	0	0	0	0	513	512	507	32	0	
0	0	0	0	0	0	514	511	508	32	0	
1	0	0	0	0	4	514	512	511	31	0	
2	0	0	0	0	0	511	512	513	31	0	
3	0	0	0	0	0	512	513	519	31	0	
4	0	0	0	0	0	513	512	525	31	0	
5	0	0	0	0	0	513	512	526	32	0	
6	0	0	0	0	0	515	510	530	32	0	
7	0	0	0	0	0	515	510	521	32	0	
8	0	0	0	0	1	514	509	515	32	0	
9	0	0	0	0	3	515	508	511	31	0	
10	0	0	0	0	0	515	509	510	32	0	
11	0	0	0	0	0	513	510	504	31	0	
12	0	0	0	0	0	512	509	502	31	0	
13	0	0	0	0	0	513	511	499	32	0	
14	0	0	0	0	0	512	511	495	32	0	
15	0	0	0	0	0	512	510	501	32	0	
0	0	0	0	0	1	512	507	508	32	0	
1	0	0	0	0	3	513	507	509	32	0	
2	0	0	0	0	0	514	511	513	32	0	
3	0	0	0	0	0	513	510	517	31	0	
4	0	0	0	0	0	515	511	523	31	0	
5	0	0	0	0	0	514	510	525	31	0	
6	0	0	0	0	0	517	510	524	32	0	
7	0	0	0	0	0	513	509	522	32	0	
8	0	0	0	0	0	513	507	515	31	0	
9	0	0	0	0	2	515	509	507	32	0	
10	0	0	0	0	0	513	510	505	31	0	
11	0	0	0	0	0	514	510	504	31	0	
12	0	0	0	0	0	512	510	494	31	0	
13	0	0	0	0	0	513	511	492	31	0	
14	0	0	0	0	0	514	510	491	32	0	
15	0	0	0	0	0	512	510	494	31	0	
0	0	0	0	0	0	513	511	497	31	0	
1	0	0	0	0	2	515	510	509	31	0	
2	0	0	0	0	0	514	512	508	31	0	
3	0	0	0	0	0	516	511	513	32	0	
4	0	0	0	0	0	513	511	523	32	0	
5	0	0	0	0	0	513	506	528	32	0	
6	0	0	0	0	0	512	507	529	31	0	
7	0	0	0	0	0	513	508	521	32	0	
8	0	0	0	0	0	515	508	523	32	0	
9	0	0	0	0	2	515	509	518	32	0	
10	0	0	0	0	0	515	510	508	32	0	
11	0	0	0	0	0	513	511	507	32	0	
12	0	0	0	0	0	512	511	505	32	0	
13	0	0	0	0	0	513	511	498	32	0	
14	0	0	0	0	0	513	510	499	32	0	
15	0	0	0	0	0	513	511	500	32	0	
0	0	0	0	0	0	513	513	492	31	0	
1	0	0	0	0	3	515	511	496	31	0	
2	0	0	0	0	0	514	511	506	31	0	
3	0	0	0	0	0	511	509	504	31	0	
4	0	0	0	0	0	513	510	510	31	0	
5	0	0	0	0	0	514	509	513	31	0	
6	0	0	0	0	0	515	508	516	32	0	
7	0	0	0	0	0	513	509	516	32	0	
8	0	0	0	0	1	515	509	519	32	0	
9	0	0	0	0	4	512	510	519	32	0	
10	0	0	0	0	0	514	509	511	31	0	
11	0	0	0	0	0	515	508	510	31	0	
12	0	0	0	0	0	512	510	503	31	0	
13	0	0	0	0	0	514	509	494	31	0	
14	0	0	0	0	0	516	511	496	32	0	
15	0	0	0	0	0	515	509	487	31	0	
0	0	0	0	0	1	514	508	493	31	0	
1	0	0	0	0	4	513	509	496	31	0	
2	0	0	0	0	0	514	510	503	32	0	
3	0	0	0	0	0	513	509	507	32	0	
4	0	0	0	0	0	514	509	503	32	0	
5	0	0	0	0	0	514	509	512	32	0	
6	0	0	0	0	0	514	511	520	31	0	
7	0	0	0	0	0	514	509	519	31	0	
8	0	0	0	0	0	513	510	520	32	0	
9	0	0	0	0	4	514	509	520	32	0	
10	0	0	0	0	0	515	511	515	32	0	
11	0	0	0	0	0	514	511	513	31	0	
12	0	0	0	0	0	513	510	508	31	0	
13	0	0	0	0	0	514	509	501	31	0	
14	0	0	0	0	0	513	509	500	31	0	
15	0	0	0	0	0	513	509	498	32	0	
0	0	0	0	0	0	514	510	497	32	0	
1	0	0	0	0	4	513	508	500	32	0	
2	0	0	0	0	0	513	509	505	32	0	
3	0	0	0	0	0	514	508	511	31	0	
4	0	0	0	0	0	513	510	510	31	0	
5	0	0	0	0	0	513	511	515	31	0	
6	0	0	0	0	0	512	510	518	31	0	
7	0	0	0	0	0	514	511	520	32	0	
8	0	0	0	0	0	515	512	525	32	0	
9	0	0	0	0	3	516	511	524	31	0	
10	0	0	0	0	0	515	510	522	32	0	
11	0	0	0	0	0	514	509	514	32	0	
12	0	0	0	0	0	515	510	508	31	0	
13	0	0	0	0	0	513	509	506	32	0	
14	0	0	0	0	0	513	509	504	32	0	
15	0	0	0	0	0	514	510	498	32	0	
0	0	0	0	0	1	515	509	496	31	0	
1	0	0	0	0	4	514	510	496	32	0	
2	0	0	0	0	0	516	508	492	32	0	
3	0	0	0	0	0	514	508	500	32	0	
4	0	0	0	0	0	515	508	507	32	0	
5	0	0	0	0	0	512	510	509	32	0	
6	0	0	0	0	0	513	509	515	31	0	
7	0	0	0	0	0	511	511	522	32	0	
8	0	0	0	0	0	510	512	521	31	0	
9	0	0	0	0	3	513	512	524	31	0	
10	0	0	0	0	0	512	513	527	31	0	
11	0	0	0	0	0	513	513	524	31	0	
12	0	0	0	0	0	513	512	520	31	0	
13	0	0	0	0	0	514	511	507	32	0	
14	0	0	0	0	0	515	509	506	32	0	
15	0	0	0	0	0	512	509	498	32	0	
0	0	0	0	0	1	514	509	502	32	0	
1	0	0	0	0	3	515	509	496	32	0	
2	0	0	0	0	0	514	511	497	32	0	
3	0	0	0	0	0	514	508	500	32	0	
4	0	0	0	0	0	515	508	502	31	0	
5	0	0	0	0	0	515	508	504	31	0	
6	0	0	0	0	0	513	508	512	31	0	
7	0	0	0	0	0	514	510	515	32	0	
8	0	0	0	0	0	513	509	519	31	0	
9	0	0	0	0	4	515	509	521	32	0	
10	0	0	0	0	0	514	508	516	32	0	
11	0	0	0	0	0	516	510	521	32	0	
12	0	0	0	0	0	514	509	510	31	0	
13	0	0	0	0	0	515	508	507	31	0	
14	0	0	0	0	0	515	510	507	31	0	
15	0	0	0	0	0	513	511	503	31	0	
0	0	0	0	0	1	514	509	498	32	0	
1	0	0	0	0	3	512	510	489	31	0	
2	0	0	0	0	0	512	510	489	31	0	
3	0	0	0	0	0	512	509	490	31	0	
4	0	0	0	0	0	512	509	498	32	0	
5	0	0	0	0	0	512	510	500	32	0	
6	0	0	0	0	0	512	509	502	32	0	
7	0	0	0	0	0	514	508	509	32	0	
8	0	0	0	0	0	513	509	514	32	0	
9	0	0	0	0	1	516	511	519	31	0	
10	0	0	0	0	0	513	513	524	32	0	
11	0	0	0	0	0	514	509	523	32	0	
12	0	0	0	0	0	514	509	521	31	0	
13	0	0	0	0	0	515	508	520	32	0	
14	0	0	0	0	0	513	511	515	31	0	
15	0	0	0	0	0	513	509	510	32	0	
0	0	0	0	0	0	513	510	499	31	0	
1	0	0	0	0	1	515	511	495	31	0	
2	0	0	0	0	0	512	512	495	31	0	
3	0	0	0	0	0	514	510	497	31	0	
4	0	0	0	0	0	512	511	497	31	0	
5	0	0	0	0	0	512	510	500	32	0	
6	0	0	0	0	0	514	509	506	32	0	
7	0	0	0	0	0	516	511	509	32	0	
8	0	0	0	0	0	514	509	512	32	0	
9	0	0	0	0	1	513	511	519	32	0	
10	0	0	0	0	0	514	510	519	32	0	
11	0	0	0	0	0	515	508	520	32	0	
12	0	0	0	0	0	514	509	524	32	0	
13	0	0	0	0	0	515	510	524	32	0	
14	0	0	0	0	0	516	510	513	31	0	
15	0	0	0	0	0	513	510	509	31	0	
0	0	0	0	0	1	513	510	508	31	0	
1	0	0	0	0	4	514	510	497	31	0	
2	0	0	0	0	0	512	511	499	31	0	
3	0	0	0	0	0	512	508	492	32	0	
4	0	0	0	0	0	511	507	495	32	0	
5	0	0	0	0	0	511	506	502	32	0	
6	0	0	0	0	0	514	506	502	32	0	
7	0	0	0	0	0	513	510	509	32	0	
8	0	0	0	0	0	511	507	502	31	0	
9	0	0	0	0	4	513	511	514	31	0	
10	0	0	0	0	0	517	512	523	32	0	
11	0	0	0	0	0	513	511	525	32	0	
12	0	0	0	0	0	516	511	519	32	0	
13	0	0	0	0	0	515	512	520	31	0	
14	0	0	0	0	0	514	510	516	32	0	
15	0	0	0	0	0	513	512	515	31	0	
0	0	0	0	0	1	515	511	514	31	0	
1	0	0	0	0	3	515	511	503	31	0	
2	0	0	0	0	0	516	512	504	31	0	
3	0	0	0	0	0	515	509	495	32	0	
4	0	0	0	0	0	514	507	496	32	0	
5	0	0	0	0	0	512	507	491	32	0	
6	0	0	0	0	0	512	508	498	31	0	
7	0	0	0	0	0	515	510	505	32	0	
8	0	0	0	0	1	515	509	507	31	0	
9	0	0	0	0	3	514	510	514	32	0	
10	0	0	0	0	0	514	510	516	31	0	
11	0	0	0	0	0	513	509	525	32	0	
12	0	0	0	0	0	513	509	526	32	0	
13	0	0	0	0	0	516	507	523	32	0	
14	0	0	0	0	0	518	511	521	32	0	
15	0	0	0	0	0	514	509	517	32	0	
0	0	0	0	0	1	513	510	515	32	0	
1	0	0	0	0	3	513	511	508	31	0	
2	0	0	0	0	0	513	512	502	31	0	
3	0	0	0	0	0	514	511	497	31	0	
4	0	0	0	0	0	515	508	495	31	0	
5	0	0	0	0	0	515	508	492	31	0	
6	0	0	0	0	0	514	508	499	31	0	
7	0	0	0	0	0	511	508	504	31	0	
8	0	0	0	0	0	512	508	506	32	0	
9	0	0	0	0	4	511	507	507	32	0	
10	0	0	0	0	0	516	510	511	32	0	
11	0	0	0	0	0	512	511	523	32	0	
12	0	0	0	0	0	514	512	523	32	0	
13	0	0	0	0	0	515	513	524	32	0	
14	0	0	0	0	0	514	509	524	32	0	
15	0	0	0	0	0	514	511	522	32	0	
0	0	0	0	0	1	516	509	512	31	0	
1	0	0	0	0	4	519	511	507	31	0	
2	0	0	0	0	0	516	512	503	31	0	
3	0	0	0	0	0	513	511	501	32	0	
4	0	0	0	0	0	512	512	496	31	0	
5	0	0	0	0	0	511	512	497	31	0	
6	0	0	0	0	0	511	510	498	31	0	
7	0	0	0	0	0	512	508	501	32	0	
8	0	0	0	0	1	514	506	504	32	0	
9	0	0	0	0	3	515	510	508	32	0	
10	0	0	0	0	0	515	512	512	31	0	
11	0	0	0	0	0	513	508	516	32	0	
12	0	0	0	0	0	513	509	524	31	0	
13	0	0	0	0	0	513	508	520	31	0	
14	0	0	0	0	0	515	508	520	31	0	
15	0	0	0	0	0	513	511	522	32	0	
0	0	0	0	0	1	514	510	521	32	0	
1	0	0	0	0	3	512	509	514	32	0	
2	0	0	0	0	0	512	508	512	32	0	
3	0	0	0	0	0	515	508	501	32	0	
4	0	0	0	0	0	515	510	498	32	0	
5	0	0	0	0	0	515	510	490	32	0	
6	0	0	0	0	0	513	511	492	32	0	
7	0	0	0	0	0	515	510	494	32	0	
8	0	0	0	0	0	515	508	492	31	0	
9	0	0	0	0	4	512	512	500	31	0	
10	0	0	0	0	0	515	511	504	31	0	
11	0	0	0	0	0	513	511	510	31	0	
12	0	0	0	0	0	514	509	520	32	0	
13	0	0	0	0	0	512	510	521	31	0	
14	0	0	0	0	0	515	512	526	31	0	
15	0	0	0	0	0	515	511	523	32	0	
0	0	0	0	0	0	515	509	520	32	0	
1	0	0	0	0	4	514	511	516	31	0	
2	0	0	0	0	0	513	513	508	31	0	
3	0	0	0	0	0	512	511	505	31	0	
4	0	0	0	0	0	514	509	499	31	0	
5	0	0	0	0	0	515	510	493	31	0	
6	0	0	0	0	0	512	513	500	32	0	
7	0	0	0	0	0	512	510	497	32	0	
8	0	0	0	0	0	514	509	494	32	0	
9	0	0	0	0	2	513	509	498	31	0	
10	0	0	0	0	0	515	507	504	31	0	
11	0	0	0	0	0	513	506	509	32	0	
12	0	0	0	0	0	512	508	516	32	0	
13	0	0	0	0	0	511	509	517	32	0	
14	0	0	0	0	0	512	511	519	32	0	
15	0	0	0	0	0	515	508	527	32	0	
0	0	0	0	0	0	513	508	526	32	0	
1	0	0	0	0	2	515	513	522	31	0	
2	0	0	0	0	0	515	511	512	31	0	
3	0	0	0	0	0	515	512	510	32	0	
4	0	0	0	0	0	516	513	511	32	0	
5	0	0	0	0	0	516	510	503	32	0	
6	0	0	0	0	0	514	509	495	32	0	
7	0	0	0	0	0	513	508	490	31	0	
8	0	0	0	0	1	513	510	494	32	0	
9	0	0	0	0	3	513	509	500	31	0	
10	0	0	0	0	0	511	510	506	31	0	
11	0	0	0	0	0	515	512	509	31	0	
12	0	0	0	0	0	512	510	512	32	0	
13	0	0	0	0	0	512	507	515	32	0	
14	0	0	0	0	0	515	510	524	32	0	
15	0	0	0	0	0	515	508	521	32	0	
0	0	0	0	0	0	515	505	519	31	0	
1	0	0	0	0	3	514	508	519	31	0	
2	0	0	0	0	0	516	509	521	31	0	
3	0	0	0	0	0	511	510	518	32	0	
4	0	0	0	0	0	513	511	511	31	0	
5	0	0	0	0	0	516	510	500	32	0	
6	0	0	0	0	0	515	508	498	32	0	
7	0	0	0	0	0	513	508	496	32	0	
8	0	0	0	0	0	516	510	496	32	0	
9	0	0	0	0	4	514	511	493	31	0	
10	0	0	0	0	0	513	511	495	31	0	
11	0	0	0	0	0	513	511	507	31	0	
12	0	0	0	0	0	514	510	509	31	0	
13	0	0	0	0	0	512	510	511	32	0	
14	0	0	0	0	0	511	510	523	32	0	
15	0	0	0	0	0	512	510	523	32	0	
0	0	0	0	0	1	513	511	524	32	0	
1	0	0	0	0	3	513	511	518	31	0	
2	0	0	0	0	0	516	511	521	32	0	
3	0	0	0	0	0	515	508	521	32	0	
4	0	0	0	0	0	514	508	513	32	0	
5	0	0	0	0	0	511	508	512	32	0	
6	0	0	0	0	0	515	508	504	31	0	
7	0	0	0	0	0	517	508	501	32	0	
8	0	0	0	0	1	515	509	496	31	0	
9	0	0	0	0	3	513	509	492	31	0	
10	0	0	0	0	0	511	513	503	31	0	
11	0	0	0	0	0	511	510	503	32	0	
12	0	0	0	0	0	511	507	505	31	0	
13	0	0	0	0	0	512	510	512	31	0	
14	0	0	0	0	0	512	512	513	31	0	
15	0	0	0	0	0	513	511	521	31	0	
0	0	0	0	0	0	514	508	527	32	0	
1	0	0	0	0	4	514	510	527	31	0	
2	0	0	0	0	0	515	508	521	32	0	
3	0	0	0	0	0	515	510	516	32	0	
4	0	0	0	0	0	512	509	512	32	0	
5	0	0	0	0	0	515	510	510	32	0	
6	0	0	0	0	0	514	509	508	31	0	
7	0	0	0	0	0	513	508	502	32	0	
8	0	0	0	0	0	515	512	497	32	0	
9	0	0	0	0	4	515	510	495	31	0	
10	0	0	0	0	0	514	509	496	32	0	
11	0	0	0	0	0	513	510	500	32	0	
12	0	0	0	0	0	514	512	504	31	0	
13	0	0	0	0	0	515	511	508	32	0	
14	0	0	0	0	0	512	508	511	32	0	
15	0	0	0	0	0	515	508	513	32	0	
0	0	0	0	0	0	517	508	519	32	0	
1	0	0	0	0	4	513	510	528	31	0	
2	0	0	0	0	0	513	508	525	31	0	
3	0	0	0	0	0	514	510	518	31	0	
4	0	0	0	0	0	513	508	519	32	0	
5	0	0	0	0	0	514	509	512	32	0	
6	0	0	0	0	0	513	507	512	31	0	
7	0	0	0	0	0	511	509	507	31	0	
8	0	0	0	0	0	512	510	499	31	0	
9	0	0	0	0	3	512	509	499	32	0	
10	0	0	0	0	0	513	511	496	32	0	
11	0	0	0	0	0	512	512	499	31	0	
12	0	0	0	0	0	515	508	497	31	0	
13	0	0	0	0	0	514	511	501	32	0	
14	0	0	0	0	0	513	509	505	31	0	
15	0	0	0	0	0	515	508	510	32	0	
0	0	0	0	0	1	514	510	516	32	0	
1	0	0	0	0	4	513	509	530	31	0	
2	0	0	0	0	0	515	509	528	32	0	
3	0	0	0	0	0	515	510	528	32	0	
4	0	0	0	0	0	516	511	519	32	0	
5	0	0	0	0	0	515	508	513	32	0	
6	0	0	0	0	0	515	510	504	32	0	
7	0	0	0	0	0	512	510	505	31	0	
8	0	0	0	0	1	513	511	507	32	0	
9	0	0	0	0	3	513	511	499	31	0	
10	0	0	0	0	0	511	510	498	31	0	
11	0	0	0	0	0	514	508	498	31	0	
12	0	0	0	0	0	514	509	498	31	0	
13	0	0	0	0	0	513	508	499	32	0	
14	0	0	0	0	0	515	509	505	32	0	
15	0	0	0	0	0	515	510	503	31	0	
0	0	0	0	0	0	515	513	513	31	0	
1	0	0	0	0	1	513	510	515	32	0	
2	0	0	0	0	0	513	508	523	32	0	
3	0	0	0	0	0	513	507	527	31	0	
4	0	0	0	0	0	515	509	523	32	0	
5	0	0	0	0	0	515	510	519	32	0	
6	0	0	0	0	0	515	510	511	32	0	
7	0	0	0	0	0	514	507	508	32	0	
8	0	0	0	0	0	515	508	510	32	0	
9	0	0	0	0	1	514	510	500	32	0	
10	0	0	0	0	0	512	510	499	31	0	
11	0	0	0	0	0	513	511	497	31	0	
12	0	0	0	0	0	514	511	495	31	0	
13	0	0	0	0	0	512	510	498	31	0	
14	0	0	0	0	0	511	511	502	32	0	
15	0	0	0	0	0	515	511	510	32	0	
0	0	0	0	0	0	514	508	515	32	0	
1	0	0	0	0	1	515	509	517	31	0	
2	0	0	0	0	0	512	508	522	32	0	
3	0	0	0	0	0	515	510	529	32	0	
4	0	0	0	0	0	515	510	525	32	0	
5	0	0	0	0	0	514	509	523	32	0	
6	0	0	0	0	0	512	512	521	32	0	
7	0	0	0	0	0	514	511	519	32	0	
8	0	0	0	0	1	516	511	509	32	0	
9	0	0	0	0	3	515	508	504	31	0	
10	0	0	0	0	0	515	510	497	31	0	
11	0	0	0	0	0	514	510	494	31	0	
12	0	0	0	0	0	513	511	495	31	0	
13	0	0	0	0	0	513	510	501	32	0	
14	0	0	0	0	0	515	509	499	32	0	
15	0	0	0	0	0	514	507	504	31	0	
0	0	0	0	0	1	512	511	504	31	0	
1	0	0	0	0	3	514	510	508	31	0	
2	0	0	0	0	0	512	509	521	32	0	
3	0	0	0	0	0	513	508	522	31	0	
4	0	0	0	0	0	515	509	524	31	0	
5	0	0	0	0	0	514	510	521	32	0	
6	0	0	0	0	0	514	510	516	32	0	
7	0	0	0	0	0	513	508	515	32	0	
8	0	0	0	0	0	513	512	509	32	0	
9	0	0	0	0	4	515	508	512	31	0	
10	0	0	0	0	0	515	509	502	32	0	
11	0	0	0	0	0	515	511	497	32	0	
12	0	0	0	0	0	515	510	499	32	0	
13	0	0	0	0	0	514	510	494	32	0	
14	0	0	0	0	0	513	510	500	32	0	
15	0	0	0	0	0	511	511	495	32	0	
0	0	0	0	0	0	513	511	495	32	0	
1	0	0	0	0	4	512	510	500	31	0	
2	0	0	0	0	0	512	510	509	31	0	
3	0	0	0	0	0	515	511	521	32	0	
4	0	0	0	0	0	513	510	520	31	0	
5	0	0	0	0	0	514	510	526	31	0	
6	0	0	0	0	0	515	511	527	32	0	
7	0	0	0	0	0	515	509	516	31	0	
8	0	0	0	0	1	514	507	511	32	0	
9	0	0	0	0	4	515	510	509	31	0	
10	0	0	0	0	0	514	510	511	32	0	
11	0	0	0	0	0	515	510	501	32	0	
12	0	0	0	0	0	513	510	494	32	0	
13	0	0	0	0	0	513	511	495	32	0	
14	0	0	0	0	0	513	509	494	32	0	
15	0	0	0	0	0	515	510	496	32	0	
0	0	0	0	0	1	515	512	501	32	0	
1	0	0	0	0	4	513	510	509	31	0	
2	0	0	0	0	0	513	510	512	31	0	
3	0	0	0	0	0	511	511	519	31	0	
4	0	0	0	0	0	514	509	523	31	0	
5	0	0	0	0	0	514	509	520	32	0	
6	0	0	0	0	0	515	508	524	32	0	
7	0	0	0	0	0	516	510	524	32	0	
8	0	0	0	0	0	516	510	516	31	0	
9	0	0	0	0	4	514	508	510	31	0	
10	0	0	0	0	0	515	509	508	32	0	
11	0	0	0	0	0	514	512	507	32	0	
12	0	0	0	0	0	513	512	507	31	0	
13	0	0	0	0	0	511	510	496	31	0	
14	0	0	0	0	0	512	509	496	32	0	
15	0	0	0	0	0	511	510	500	32	0	
0	0	0	0	0	0	511	506	496	32	0	
1	0	0	0	0	4	511	510	505	32	0	
2	0	0	0	0	0	512	509	504	32	0	
3	0	0	0	0	0	515	512	511	31	0	
4	0	0	0	0	0	514	509	518	31	0	
5	0	0	0	0	0	514	511	525	31	0	
6	0	0	0	0	0	515	508	532	31	0	
7	0	0	0	0	0	516	508	526	32	0	
8	0	0	0	0	1	516	509	523	32	0	
9	0	0	0	0	4	515	506	512	31	0	
10	0	0	0	0	0	515	508	510	32	0	
11	0	0	0	0	0	513	510	500	31	0	
12	0	0	0	0	0	515	511	497	32	0	
13	0	0	0	0	0	514	511	492	31	0	
14	0	0	0	0	0	514	510	495	32	0	
15	0	0	0	0	0	514	512	496	32	0	
0	0	0	0	0	1	513	511	495	32	0	
1	0	0	0	0	4	511	510	497	31	0	
2	0	0	0	0	0	512	509	503	32	0	
3	0	0	0	0	0	514	510	506	31	0	
4	0	0	0	0	0	512	510	511	32	0	
5	0	0	0	0	0	513	511	524	32	0	
6	0	0	0	0	0	516	512	527	32	0	
7	0	0	0	0	0	516	510	527	32	0	
8	0	0	0	0	1	512	509	523	31	0	
9	0	0	0	0	3	512	508	519	31	0	
10	0	0	0	0	0	512	509	511	32	0	
11	0	0	0	0	0	516	510	506	31	0	
12	0	0	0	0	0	513	509	508	32	0	
13	0	0	0	0	0	514	508	501	32	0	
14	0	0	0	0	0	514	507	494	31	0	
15	0	0	0	0	0	511	508	494	32	0	
0	0	0	0	0	0	514	506	496	32	0	
1	0	0	0	0	2	515	511	498	31	0	
2	0	0	0	0	0	515	511	501	31	0	
3	0	0	0	0	0	512	512	504	31	0	
4	0	0	0	0	0	513	512	508	31	0	
5	0	0	0	0	0	512	511	518	31	0	
6	0	0	0	0	0	516	511	524	32	0	
7	0	0	0	0	0	515	508	525	32	0	
8	0	0	0	0	0	513	511	523	32	0	
9	0	0	0	0	2	516	512	524	32	0	
10	0	0	0	0	0	514	510	525	32	0	
11	0	0	0	0	0	514	510	520	32	0	
12	0	0	0	0	0	513	510	515	32	0	
13	0	0	0	0	0	513	508	504	31	0	
14	0	0	0	0	0	513	508	502	31	0	
15	0	0	0	0	0	512	509	492	31	0	
0	0	0	0	0	0	516	511	500	32	0	
1	0	0	0	0	2	515	510	506	32	0	
2	0	0	0	0	0	515	509	499	32	0	
3	0	0	0	0	0	512	510	504	32	0	
4	0	0	0	0	0	513	510	503	32	0	
5	0	0	0	0	0	512	507	506	32	0	
6	0	0	0	0	0	512	511	520	31	0	
7	0	0	0	0	0	513	511	525	31	0	
8	0	0	0	0	1	514	508	528	32	0	
9	0	0	0	0	3	514	511	521	31	0	
10	0	0	0	0	0	515	508	520	32	0	
11	0	0	0	0	0	514	508	516	32	0	
12	0	0	0	0	0	514	507	511	32	0	
13	0	0	0	0	0	512	508	511	32	0	
14	0	0	0	0	0	515	510	502	31	0	
15	0	0	0	0	0	516	513	499	31	0	
0	0	0	0	0	1	514	508	493	31	0	
1	0	0	0	0	3	514	508	495	31	0	
2	0	0	0	0	0	512	511	498	32	0	
3	0	0	0	0	0	514	511	499	31	0	
4	0	0	0	0	0	514	512	506	31	0	
5	0	0	0	0	0	513	512	508	32	0	
6	0	0	0	0	0	517	512	513	31	0	
7	0	0	0	0	0	514	511	523	31	0	
8	0	0	0	0	0	515	510	522	31	0	
9	0	0	0	0	3	514	508	525	32	0	
10	0	0	0	0	0	514	510	526	32	0	
11	0	0	0	0	0	512	508	519	32	0	
12	0	0	0	0	0	512	507	515	32	0	
13	0	0	0	0	0	513	509	510	32	0	
14	0	0	0	0	0	515	509	508	32	0	
15	0	0	0	0	0	515	507	499	31	0	
0	0	0	0	0	1	513	511	501	31	0	
1	0	0	0	0	3	512	508	497	31	0	
2	0	0	0	0	0	513	509	494	32	0	
3	0	0	0	0	0	513	508	499	32	0	
4	0	0	0	0	0	512	507	503	31	0	
5	0	0	0	0	0	515	509	511	32	0	
6	0	0	0	0	0	515	512	514	32	0	
7	0	0	0	0	0	513	508	517	31	0	
8	0	0	0	0	0	513	509	524	31	0	
9	0	0	0	0	4	515	511	527	32	0	
10	0	0	0	0	0	514	510	520	32	0	
11	0	0	0	0	0	512	513	519	32	0	
12	0	0	0	0	0	512	511	512	32	0	
13	0	0	0	0	0	513	511	515	32	0	
14	0	0	0	0	0	513	510	513	31	0	
15	0	0	0	0	0	515	509	510	31	0	
0	0	0	0	0	1	513	512	502	32	0	
1	0	0	0	0	3	513	514	497	31	0	
2	0	0	0	0	0	511	509	495	32	0	
3	0	0	0	0	0	515	506	491	32	0	
4	0	0	0	0	0	515	507	495	32	0	
5	0	0	0	0	0	513	508	501	32	0	
6	0	0	0	0	0	513	509	501	32	0	
7	0	0	0	0	0	513	509	512	32	0	
8	0	0	0	0	0	513	510	518	31	0	
9	0	0	0	0	3	515	512	519	31	0	
10	0	0	0	0	0	516	511	526	32	0	
11	0	0	0	0	0	515	510	525	32	0	
12	0	0	0	0	0	513	508	520	31	0	
13	0	0	0	0	0	514	505	519	31	0	
14	0	0	0	0	0	515	510	512	31	0	
15	0	0	0	0	0	515	511	510	32	0	
0	0	0	0	0	0	516	507	506	32	0	
1	0	0	0	0	4	512	511	503	32	0	
2	0	0	0	0	0	513	508	499	32	0	
3	0	0	0	0	0	513	511	496	32	0	
4	0	0	0	0	0	513	511	499	32	0	
5	0	0	0	0	0	512	508	502	32	0	
6	0	0	0	0	0	513	508	510	31	0	
7	0	0	0	0	0	514	508	509	31	0	
8	0	0	0	0	0	513	509	510	31	0	
9	0	0	0	0	4	513	511	522	31	0	
10	0	0	0	0	0	514	510	520	32	0	
11	0	0	0	0	0	515	511	524	32	0	
12	0	0	0	0	0	515	509	521	31	0	
13	0	0	0	0	0	514	508	519	31	0	
14	0	0	0	0	0	512	508	509	32	0	
15	0	0	0	0	0	514	508	505	32	0	
0	0	0	0	0	1	514	511	508	32	0	
1	0	0	0	0	4	512	512	503	31	0	
2	0	0	0	0	0	513	511	499	32	0	
3	0	0	0	0	0	514	508	503	32	0	
4	0	0	0	0	0	515	510	498	32	0	
5	0	0	0	0	0	515	508	499	32	0	
6	0	0	0	0	0	515	510	498	32	0	
7	0	0	0	0	0	512	511	504	32	0	
8	0	0	0	0	1	514	513	509	31	0	
9	0	0	0	0	1	515	510	517	31	0	
10	0	0	0	0	0	513	509	517	31	0	
11	0	0	0	0	0	512	509	519	31	0	
12	0	0	0	0	0	515	510	521	31	0	
13	0	0	0	0	0	513	510	519	31	0	
14	0	0	0	0	0	513	510	517	32	0	
15	0	0	0	0	0	515	511	511	31	0	
0	0	0	0	0	0	515	508	509	32	0	
1	0	0	0	0	1	515	511	510	31	0	
2	0	0	0	0	0	513	510	502	32	0	
3	0	0	0	0	0	514	508	496	31	0	
4	0	0	0	0	0	512	509	493	32	0	
5	0	0	0	0	0	512	508	496	32	0	
6	0	0	0	0	0	514	508	494	32	0	
7	0	0	0	0	0	514	510	501	32	0	
8	0	0	0	0	0	514	509	507	32	0	
9	0	0	0	0	1	512	511	515	31	0	
10	0	0	0	0	0	515	510	517	31	0	
11	0	0	0	0	0	514	509	519	32	0	
12	0	0	0	0	0	514	509	520	32	0	
13	0	0	0	0	0	512	509	521	32	0	
14	0	0	0	0	0	513	512	521	31	0	
15	0	0	0	0	0	513	511	519	31	0	
0	0	0	0	0	0	515	509	515	32	0	
1	0	0	0	0	3	515	512	511	31	0	
2	0	0	0	0	0	515	510	508	32	0	
3	0	0	0	0	0	512	509	503	32	0	
4	0	0	0	0	0	513	510	494	32	0	
5	0	0	0	0	0	514	509	495	31	0	
6	0	0	0	0	0	513	509	503	32	0	
7	0	0	0	0	0	513	510	505	32	0	
8	0	0	0	0	1	514	510	507	32	0	
9	0	0	0	0	4	513	510	512	32	0	
10	0	0	0	0	0	514	510	512	31	0	
11	0	0	0	0	0	512	511	526	31	0	
12	0	0	0	0	0	515	509	526	31	0	
13	0	0	0	0	0	514	512	524	32	0	
14	0	0	0	0	0	513	511	522	31	0	
15	0	0	0	0	0	513	510	517	31	0	
0	0	0	0	0	0	515	511	511	31	0	
1	0	0	0	0	3	513	510	507	31	0	
2	0	0	0	0	0	514	511	509	31	0	
3	0	0	0	0	0	512	510	499	31	0	
4	0	0	0	0	0	513	510	492	31	0	
5	0	0	0	0	0	514	514	496	32	0	
6	0	0	0	0	0	515	510	498	32	0	
7	0	0	0	0	0	513	509	501	32	0	
8	0	0	0	0	1	512	508	501	31	0	
9	0	0	0	0	3	515	506	503	31	0	
10	0	0	0	0	0	514	505	501	31	0	
11	0	0	0	0	0	513	507	508	31	0	
12	0	0	0	0	0	514	509	514	32	0	
13	0	0	0	0	0	515	510	519	32	0	
14	0	0	0	0	0	515	509	519	31	0	
15	0	0	0	0	0	513	510	524	32	0	
0	0	0	0	0	0	515	509	521	31	0	
1	0	0	0	0	3	513	510	517	32	0	
2	0	0	0	0	0	514	511	510	32	0	
3	0	0	0	0	0	516	512	506	32	0	
4	0	0	0	0	0	513	513	505	32	0	
5	0	0	0	0	0	514	512	500	32	0	
6	0	0	0	0	0	514	513	499	31	0	
7	0	0	0	0	0	513	509	504	32	0	
8	0	0	0	0	0	512	510	504	32	0	
9	0	0	0	0	3	513	510	504	32	0	
10	0	0	0	0	0	514	510	508	32	0	
11	0	0	0	0	0	517	509	512	32	0	
12	0	0	0	0	0	512	507	519	32	0	
13	0	0	0	0	0	515	508	524	32	0	
14	0	0	0	0	0	516	510	523	32	0	
15	0	0	0	0	0	514	508	521	31	0	
0	0	0	0	0	0	514	508	527	31	0	
1	0	0	0	0	4	513	509	524	32	0	
2	0	0	0	0	0	515	511	517	32	0	
3	0	0	0	0	0	512	510	513	31	0	
4	0	0	0	0	0	512	510	504	31	0	
5	0	0	0	0	0	513	509	503	32	0	
6	0	0	0	0	0	512	508	500	31	0	
7	0	0	0	0	0	515	509	498	31	0	
8	0	0	0	0	0	514	509	493	31	0	
9	0	0	0	0	3	513	509	496	31	0	
10	0	0	0	0	0	514	505	504	31	0	
11	0	0	0	0	0	513	510	505	31	0	
12	0	0	0	0	0	515	510	514	31	0	
13	0	0	0	0	0	513	508	512	31	0	
14	0	0	0	0	0	513	506	522	31	0	
15	0	0	0	0	0	514	508	528	31	0	
0	0	0	0	0	1	513	508	527	31	0	
1	0	0	0	0	3	514	511	518	31	0	
2	0	0	0	0	0	515	511	511	31	0	
3	0	0	0	0	0	515	509	506	31	0	
4	0	0	0	0	0	515	511	509	32	0	
5	0	0	0	0	0	514	511	505	32	0	
6	0	0	0	0	0	513	510	499	32	0	
7	0	0	0	0	0	512	511	496	32	0	
8	0	0	0	0	1	513	511	498	32	0	
9	0	0	0	0	3	513	510	498	31	0	
10	0	0	0	0	0	512	510	503	32	0	
11	0	0	0	0	0	514	509	503	32	0	
12	0	0	0	0	0	513	511	508	32	0	
13	0	0	0	0	0	513	511	513	32	0	
14	0	0	0	0	0	516	510	518	32	0	
15	0	0	0	0	0	516	512	526	32	0	
0	0	0	0	0	0	516	509	522	32	0	
1	0	0	0	0	4	512	509	516	31	0	
2	0	0	0	0	0	513	511	516	31	0	
3	0	0	0	0	0	514	512	511	32	0	
4	0	0	0	0	0	515	512	509	32	0	
5	0	0	0	0	0	513	509	505	32	0	
6	0	0	0	0	0	512	511	507	32	0	
7	0	0	0	0	0	513	514	501	32	0	
8	0	0	0	0	0	514	511	496	32	0	
9	0	0	0	0	2	515	511	502	32	0	
10	0	0	0	0	0	515	510	503	31	0	
11	0	0	0	0	0	513	511	512	31	0	
12	0	0	0	0	0	514	511	511	32	0	
13	0	0	0	0	0	514	509	513	32	0	
14	0	0	0	0	0	512	508	515	32	0	
15	0	0	0	0	0	516	511	520	31	0	
0	0	0	0	0	1	516	508	521	32	0	
1	0	0	0	0	2	515	508	525	32	0	
2	0	0	0	0	0	513	508	521	32	0	
3	0	0	0	0	0	513	510	515	32	0	
4	0	0	0	0	0	513	510	510	31	0	
5	0	0	0	0	0	513	509	512	32	0	
6	0	0	0	0	0	512	509	508	31	0	
7	0	0	0	0	0	512	511	502	31	0	
8	0	0	0	0	1	513	509	492	31	0	
9	0	0	0	0	2	515	509	491	31	0	
10	0	0	0	0	0	513	510	499	31	0	
11	0	0	0	0	0	512	509	502	31	0	
12	0	0	0	0	0	515	508	502	32	0	
13	0	0	0	0	0	514	510	501	31	0	
14	0	0	0	0	0	515	509	508	31	0	
15	0	0	0	0	0	515	510	523	32	0	
0	0	0	0	0	1	515	511	524	32	0	
1	0	0	0	0	3	514	509	526	32	0	
2	0	0	0	0	0	516	508	515	32	0	
3	0	0	0	0	0	514	511	515	31	0	
4	0	0	0	0	0	514	510	519	31	0	
5	0	0	0	0	0	513	509	510	32	0	
6	0	0	0	0	0	512	512	508	32	0	
7	0	0	0	0	0	510	508	505	31	0	
8	0	0	0	0	0	512	510	499	31	0	
9	0	0	0	0	3	515	509	496	31	0	
10	0	0	0	0	0	515	512	497	31	0	
11	0	0	0	0	0	513	508	500	32	0	
12	0	0	0	0	0	516	506	502	31	0	
13	0	0	0	0	0	513	508	504	32	0	
14	0	0	0	0	0	514	507	508	32	0	
15	0	0	0	0	0	513	511	510	31	0	
0	0	0	0	0	1	515	508	522	32	0	
1	0	0	0	0	4	512	508	528	31	0	
2	0	0	0	0	0	515	508	525	31	0	
3	0	0	0	0	0	514	508	516	31	0	
4	0	0	0	0	0	515	508	520	32	0	
5	0	0	0	0	0	514	510	511	32	0	
6	0	0	0	0	0	512	512	510	32	0	
7	0	0	0	0	0	513	513	507	32	0	
8	0	0	0	0	0	513	511	497	32	0	
9	0	0	0	0	4	513	512	497	31	0	
10	0	0	0	0	0	515	511	499	32	0	
11	0	0	0	0	0	512	510	497	32	0	
12	0	0	0	0	0	512	509	499	31	0	
13	0	0	0	0	0	513	510	504	31	0	
14	0	0	0	0	0	513	509	506	31	0	
15	0	0	0	0	0	514	508	512	32	0	
0	0	0	0	0	1	513	509	518	32	0	
1	0	0	0	0	4	515	510	530	31	0	
2	0	0	0	0	0	515	510	527	31	0	
3	0	0	0	0	0	516	511	524	31	0	
4	0	0	0	0	0	513	510	520	32	0	
5	0	0	0	0	0	513	507	517	32	0	
6	0	0	0	0	0	515	506	513	31	0	
7	0	0	0	0	0	513	508	505	31	0	
8	0	0	0	0	0	514	509	504	32	0	
9	0	0	0	0	4	515	511	504	32	0	
10	0	0	0	0	0	513	512	495	31	0	
11	0	0	0	0	0	513	510	495	31	0	
12	0	0	0	0	0	513	510	496	32	0	
13	0	0	0	0	0	515	513	505	32	0	
14	0	0	0	0	0	514	512	509	32	0	
15	0	0	0	0	0	516	510	512	32	0	
0	0	0	0	0	0	514	510	511	32	0	
1	0	0	0	0	4	513	509	514	31	0	
2	0	0	0	0	0	513	510	525	32	0	
3	0	0	0	0	0	514	509	525	31	0	
4	0	0	0	0	0	512	507	523	32	0	
5	0	0	0	0	0	515	507	519	32	0	
6	0	0	0	0	0	514	510	518	32	0	
7	0	0	0	0	0	513	508	512	32	0	
8	0	0	0	0	1	515	510	511	32	0	
9	0	0	0	0	4	513	509	504	31	0	
10	0	0	0	0	0	512	510	504	31	0	
11	0	0	0	0	0	513	510	496	31	0	
12	0	0	0	0	0	514	508	500	32	0	
13	0	0	0	0	0	513	508	503	32	0	
14	0	0	0	0	0	515	508	502	31	0	
15	0	0	0	0	0	514	509	508	31	0	
0	0	0	0	0	1	513	510	511	31	0	
1	0	0	0	0	4	515	510	516	31	0	
2	0	0	0	0	0	514	512	524	32	0	
3	0	0	0	0	0	513	510	529	32	0	
4	0	0	0	0	0	514	511	528	31	0	
5	0	0	0	0	0	514	512	526	32	0	
6	0	0	0	0	0	514	510	522	31	0	
7	0	0	0	0	0	515	512	521	32	0	
8	0	0	0	0	1	513	510	515	31	0	
9	0	0	0	0	4	516	506	512	31	0	
10	0	0	0	0	0	515	510	501	31	0	
11	0	0	0	0	0	514	509	500	31	0	
12	0	0	0	0	0	512	511	499	32	0	
13	0	0	0	0	0	513	509	497	31	0	
14	0	0	0	0	0	512	510	496	31	0	
15	0	0	0	0	0	513	511	502	31	0	
0	0	0	0	0	0	516	507	502	32	0	
1	0	0	0	0	4	515	510	504	32	0	
2	0	0	0	0	0	512	510	514	32	0	
3	0	0	0	0	0	513	510	521	32	0	
4	0	0	0	0	0	515	508	517	32	0	
5	0	0	0	0	0	516	510	513	32	0	
6	0	0	0	0	0	514	510	514	32	0	
7	0	0	0	0	0	514	511	508	31	0	
8	0	0	0	0	0	515	510	505	31	0	
9	0	0	0	0	1	514	505	503	32	0	
10	0	0	0	0	0	512	507	499	32	0	
11	0	0	0	0	0	514	509	497	32	0	
12	0	0	0	0	0	513	510	491	32	0	
13	0	0	0	0	0	512	508	487	32	0	
14	0	0	0	0	0	512	510	494	32	0	
15	0	0	0	0	0	513	510	492	32	0	
0	0	0	0	0	0	513	511	496	32	0	
1	0	0	0	0	1	514	510	507	31	0	
2	0	0	0	0	0	515	511	503	31	0	
3	0	0	0	0	0	513	511	515	31	0	
4	0	0	0	0	0	515	509	509	31	0	
5	0	0	0	0	0	514	512	517	32	0	
6	0	0	0	0	0	516	512	513	32	0	
7	0	0	0	0	0	513	510	517	32	0	
8	0	0	0	0	0	513	509	510	31	0	
9	0	0	0	0	1	514	510	507	31	0	
10	0	0	0	0	0	514	508	512	31	0	
11	0	0	0	0	0	515	509	504	31	0	
12	0	0	0	0	0	515	511	502	32	0	
13	0	0	0	0	0	515	512	500	32	0	
14	0	0	0	0	0	516	512	494	31	0	
15	0	0	0	0	0	515	511	491	31	0	
0	0	0	0	0	1	509	511	500	31	0	
1	0	0	0	0	3	509	508	504	31	0	
2	0	0	0	0	0	516	508	508	31	0	
3	0	0	0	0	0	514	506	519	32	0	
4	0	0	0	0	0	512	508	528	32	0	
5	0	0	0	0	0	515	511	532	32	0	
6	0	0	0	0	0	513	511	533	32	0	
7	0	0	0	0	0	513	509	524	31	0	
8	0	0	0	0	0	513	510	521	32	0	
9	0	0	0	0	3	516	510	517	32	0	
10	0	0	0	0	0	513	510	516	32	0	
11	0	0	0	0	0	514	508	506	32	0	
12	0	0	0	0	0	514	509	504	32	0	
13	0	0	0	0	0	513	508	500	32	0	
14	0	0	0	0	0	512	508	503	32	0	
15	0	0	0	0	0	513	508	499	31	0	
0	0	0	0	0	0	513	510	500	31	0	
1	0	0	0	0	3	514	508	498	31	0	
2	0	0	0	0	0	515	510	508	31	0	
3	0	0	0	0	0	513	511	515	32	0	
4	0	0	0	0	0	513	512	519	32	0	
5	0	0	0	0	0	512	512	518	32	0	
6	0	0	0	0	0	513	510	519	32	0	
7	0	0	0	0	0	512	508	523	32	0	
8	0	0	0	0	1	515	506	520	32	0	
9	0	0	0	0	3	513	510	516	32	0	
10	0	0	0	0	0	515	512	513	31	0	
11	0	0	0	0	0	515	507	504	32	0	
12	0	0	0	0	0	515	510	503	32	0	
13	0	0	0	0	0	512	509	496	31	0	
14	0	0	0	0	0	512	511	495	31	0	
15	0	0	0	0	0	511	511	496	31	0	
0	0	0	0	0	0	513	509	496	32	0	
1	0	0	0	0	3	516	510	498	32	0	
2	0	0	0	0	0	517	509	506	32	0	
3	0	0	0	0	0	517	509	500	31	0	
4	0	0	0	0	0	515	510	504	31	0	
5	0	0	0	0	0	515	510	506	31	0	
6	0	0	0	0	0	514	509	515	31	0	
7	0	0	0	0	0	515	507	521	31	0	
8	0	0	0	0	0	514	509	515	32	0	
9	0	0	0	0	3	513	511	512	31	0	
10	0	0	0	0	0	514	510	510	32	0	
11	0	0	0	0	0	516	510	505	32	0	
12	0	0	0	0	0	514	512	505	32	0	
13	0	0	0	0	0	511	510	501	32	0	
14	0	0	0	0	0	514	508	494	32	0	
15	0	0	0	0	0	512	507	491	32	0	
0	0	0	0	0	0	511	508	491	32	0	
1	0	0	0	0	3	512	511	494	31	0	
2	0	0	0	0	0	514	510	496	31	0	
3	0	0	0	0	0	513	512	500	32	0	
4	0	0	0	0	0	516	510	507	31	0	
5	0	0	0	0	0	516	509	511	32	0	
6	0	0	0	0	0	514	511	520	31	0	
7	0	0	0	0	0	513	509	523	32	0	
8	0	0	0	0	0	512	507	523	31	0	
9	0	0	0	0	4	513	509	528	31	0	
10	0	0	0	0	0	512	508	528	32	0	
11	0	0	0	0	0	510	509	524	32	0	
12	0	0	0	0	0	510	511	517	32	0	
13	0	0	0	0	0	513	510	511	31	0	
14	0	0	0	0	0	514	511	508	31	0	
15	0	0	0	0	0	515	511	497	31	0	
0	0	0	0	0	1	515	508	492	31	0	
1	0	0	0	0	4	514	509	494	31	0	
2	0	0	0	0	0	514	511	502	32	0	
3	0	0	0	0	0	515	511	507	31	0	
4	0	0	0	0	0	515	511	506	31	0	
5	0	0	0	0	0	514	512	509	32	0	
6	0	0	0	0	0	514	511	519	31	0	
7	0	0	0	0	0	516	509	519	32	0	
8	0	0	0	0	1	518	509	528	32	0	
9	0	0	0	0	4	512	509	527	32	0	
10	0	0	0	0	0	513	508	527	32	0	
11	0	0	0	0	0	513	509	526	32	0	
12	0	0	0	0	0	514	510	519	32	0	
13	0	0	0	0	0	513	512	509	32	0	
14	0	0	0	0	0	515	509	507	31	0	
15	0	0	0	0	0	514	508	504	32	0	
0	0	0	0	0	1	514	509	499	31	0	
1	0	0	0	0	2	518	511	500	31	0	
2	0	0	0	0	0	513	508	497	31	0	
3	0	0	0	0	0	511	509	505	32	0	
4	0	0	0	0	0	512	509	504	32	0	
5	0	0	0	0	0	516	510	508	32	0	
6	0	0	0	0	0	515	510	508	32	0	
7	0	0	0	0	0	515	512	521	31	0	
8	0	0	0	0	0	514	509	526	32	0	
9	0	0	0	0	2	514	507	524	31	0	
10	0	0	0	0	0	514	507	520	32	0	
11	0	0	0	0	0	515	509	519	32	0	
12	0	0	0	0	0	512	510	513	32	0	
13	0	0	0	0	0	514	511	505	32	0	
14	0	0	0	0	0	512	510	506	31	0	
15	0	0	0	0	0	512	512	502	31	0	
0	0	0	0	0	0	512	511	497	31	0	
1	0	0	0	0	2	511	511	491	31	0	
2	0	0	0	0	0	515	511	496	31	0	
3	0	0	0	0	0	513	511	499	32	0	
4	0	0	0	0	0	511	510	502	32	0	
5	0	0	0	0	0	511	507	507	32	0	
6	0	0	0	0	0	508	508	512	32	0	
7	0	0	0	0	0	514	510	513	31	0	
8	0	0	0	0	1	513	507	515	31	0	
9	0	0	0	0	4	516	508	520	31	0	
10	0	0	0	0	0	518	512	519	32	0	
11	0	0	0	0	0	517	510	522	31	0	
12	0	0	0	0	0	515	511	517	32	0	
13	0	0	0	0	0	515	509	514	32	0	
14	0	0	0	0	0	513	511	513	31	0	
15	0	0	0	0	0	513	510	510	32	0	
0	0	0	0	0	0	512	509	502	32	0	
1	0	0	0	0	3	511	508	502	31	0	
2	0	0	0	0	0	512	510	498	31	0	
3	0	0	0	0	0	514	509	496	32	0	
4	0	0	0	0	0	514	511	502	31	0	
5	0	0	0	0	0	517	509	505	32	0	
6	0	0	0	0	0	515	510	508	32	0	
7	0	0	0	0	0	517	512	510	32	0	
8	0	0	0	0	1	514	510	514	31	0	
9	0	0	0	0	3	515	507	520	31	0	
10	0	0	0	0	0	512	507	525	31	0	
11	0	0	0	0	0	514	510	522	31	0	
12	0	0	0	0	0	511	511	522	31	0	
13	0	0	0	0	0	512	508	520	31	0	
14	0	0	0	0	0	510	510	515	32	0	
15	0	0	0	0	0	513	508	510	32	0	
0	0	0	0	0	0	515	506	507	31	0	
1	0	0	0	0	3	513	509	500	31	0	
2	0	0	0	0	0	515	508	496	32	0	
3	0	0	0	0	0	513	508	494	31	0	
4	0	0	0	0	0	515	508	498	32	0	
5	0	0	0	0	0	515	509	502	32	0	
6	0	0	0	0	0	516	509	506	32	0	
7	0	0	0	0	0	516	508	509	32	0	
8	0	0	0	0	0	513	509	508	32	0	
9	0	0	0	0	4	512	511	518	31	0	
10	0	0	0	0	0	512	511	521	31	0	
11	0	0	0	0	0	514	508	527	31	0	
12	0	0	0	0	0	511	510	524	31	0	
13	0	0	0	0	0	513	511	516	31	0	
14	0	0	0	0	0	514	513	516	31	0	
15	0	0	0	0	0	514	512	512	31	0	
0	0	0	0	0	1	512	510	511	32	0	
1	0	0	0	0	4	512	512	511	32	0	
2	0	0	0	0	0	512	510	506	32	0	
3	0	0	0	0	0	512	510	503	32	0	
4	0	0	0	0	0	513	509	498	31	0	
5	0	0	0	0	0	515	509	499	32	0	
6	0	0	0	0	0	516	510	503	32	0	
7	0	0	0	0	0	515	509	508	32	0	
8	0	0	0	0	1	512	508	511	32	0	
9	0	0	0	0	3	513	511	511	32	0	
10	0	0	0	0	0	517	512	513	32	0	
11	0	0	0	0	0	513	510	517	31	0	
12	0	0	0	0	0	513	510	518	31	0	
13	0	0	0	0	0	517	509	519	32	0	
14	0	0	0	0	0	513	508	521	32	0	
15	0	0	0	0	0	513	510	520	32	0	
0	0	0	0	0	1	510	509	517	32	0	
1	0	0	0	0	3	513	512	504	31	0	
2	0	0	0	0	0	515	508	497	32	0	
3	0	0	0	0	0	516	508	489	32	0	
4	0	0	0	0	0	516	508	494	32	0	
5	0	0	0	0	0	513	508	495	31	0	
6	0	0	0	0	0	515	510	497	31	0	
7	0	0	0	0	0	515	511	504	32	0	
8	0	0	0	0	1	511	509	508	31	0	
9	0	0	0	0	3	510	508	507	31	0	
10	0	0	0	0	0	511	508	515	32	0	
11	0	0	0	0	0	514	510	521	31	0	
12	0	0	0	0	0	514	509	524	32	0	
13	0	0	0	0	0	517	508	524	32	0	
14	0	0	0	0	0	515	510	515	31	0	
15	0	0	0	0	0	514	510	512	31	0	
0	0	0	0	0	0	513	511	512	31	0	
1	0	0	0	0	4	513	512	511	32	0	
2	0	0	0	0	0	512	511	507	32	0	
3	0	0	0	0	0	512	512	497	31	0	
4	0	0	0	0	0	515	512	493	31	0	
5	0	0	0	0	0	516	511	499	32	0	
6	0	0	0	0	0	510	512	497	31	0	
7	0	0	0	0	0	513	509	496	31	0	
8	0	0	0	0	0	516	507	497	32	0	
9	0	0	0	0	4	518	506	507	32	0	
10	0	0	0	0	0	513	507	510	32	0	
11	0	0	0	0	0	514	508	516	32	0	
12	0	0	0	0	0	511	507	520	32	0	
13	0	0	0	0	0	514	508	522	32	0	
14	0	0	0	0	0	515	510	520	32	0	
15	0	0	0	0	0	513	512	521	31	0	
0	0	0	0	0	0	512	510	511	31	0	
1	0	0	0	0	1	510	510	510	31	0	
2	0	0	0	0	0	510	511	512	32	0	
3	0	0	0	0	0	510	515	510	31	0	
4	0	0	0	0	0	514	515	499	32	0	
5	0	0	0	0	0	515	513	494	31	0	
6	0	0	0	0	0	514	512	493	31	0	
7	0	0	0	0	0	514	508	492	31	0	
8	0	0	0	0	0	514	504	500	32	0	
9	0	0	0	0	1	514	505	502	32	0	
10	0	0	0	0	0	515	509	510	32	0	
11	0	0	0	0	0	513	504	513	32	0	
12	0	0	0	0	0	515	508	520	32	0	
13	0	0	0	0	0	514	509	522	32	0	
14	0	0	0	0	0	515	511	528	32	0	
15	0	0	0	0	0	512	511	521	31	0	
0	0	0	0	0	0	518	511	522	31	0	
1	0	0	0	0	1	516	513	517	31	0	
2	0	0	0	0	0	514	510	504	31	0	
3	0	0	0	0	0	513	513	506	31	0	
4	0	0	0	0	0	509	512	513	32	0	
5	0	0	0	0	0	511	515	507	31	0	
6	0	0	0	0	0	515	515	499	31	0	
7	0	0	0	0	0	515	511	497	31	0	
8	0	0	0	0	0	510	509	492	31	0	
9	0	0	0	0	4	509	507	499	31	0	
10	0	0	0	0	0	515	506	504	32	0	
11	0	0	0	0	0	522	506	509	32	0	
12	0	0	0	0	0	517	508	523	32	0	
13	0	0	0	0	0	514	510	520	32	0	
14	0	0	0	0	0	513	510	520	32	0	
15	0	0	0	0	0	514	509	520	32	0	
0	0	0	0	0	0	516	510	512	32	0	
1	0	0	0	0	4	514	508	508	31	0	
2	0	0	0	0	0	511	508	508	32	0	
3	0	0	0	0	0	510	508	510	32	0	
4	0	0	0	0	0	509	506	508	32	0	
5	0	0	0	0	0	509	508	502	31	0	
6	0	0	0	0	0	507	509	493	31	0	
7	0	0	0	0	0	510	511	493	31	0	
8	0	0	0	0	1	516	511	497	32	0	
9	0	0	0	0	4	518	510	495	31	0	
10	0	0	0	0	0	517	508	500	31	0	
11	0	0	0	0	0	515	508	499	32	0	
12	0	0	0	0	0	512	511	513	32	0	
13	0	0	0	0	0	511	513	518	32	0	
14	0	0	0	0	0	516	513	518	31	0	
15	0	0	0	0	0	514	509	519	31	0	
0	0	0	0	0	1	512	507	527	32	0	
1	0	0	0	0	4	518	508	524	32	0	
2	0	0	0	0	0	519	511	515	32	0	
3	0	0	0	0	0	518	508	511	32	0	
4	0	0	0	0	0	511	508	511	32	0	
5	0	0	0	0	0	510	510	499	32	0	
6	0	0	0	0	0	513	511	488	32	0	
7	0	0	0	0	0	512	510	486	32	0	
8	0	0	0	0	0	511	514	483	31	0	
9	0	0	0	0	3	514	515	484	31	0	
