# OpenSignals Text File Format. Version 1
# {"98:D3:71:FE:38:C0": {"position": 0, "device": "bitalino_rev", "device name": "98:D3:71:FE:38:C0", "device connection": "BTH98:D3:71:FE:38:C0", "sampling rate": 1000, "resolution": [4, 1, 1, 1, 1, 10, 10, 10, 10, 6, 6], "firmware version": 1282, "comments": "", "keywords": "", "mode": 0, "sync interval": 2, "date": "2026-6-5", "time": "12:48:2.921", "channels": [1, 2, 3, 4, 5, 6], "sensor": ["RAW", "RAW", "RAW", "RAW", "RAW", "RAW"], "label": ["A1", "A2", "A3", "A4", "A5", "A6"], "column": ["nSeq", "I1", "I2", "O1", "O2", "A1", "A2", "A3", "A4", "A5", "A6"], "special": [{}, {}, {}, {}, {}, {}], "digital IO": [0, 0, 1, 1]}}
# EndOfHeader
0	0	0	0	0	1	504	511	512	31	0	
1	0	0	0	0	0	503	514	511	31	0	
2	0	0	0	0	0	503	514	510	31	0	
3	0	0	0	0	0	507	513	509	31	0	
4	0	0	0	0	0	504	513	509	31	0	
5	0	0	0	0	0	506	512	510	31	0	
6	0	0	0	0	0	508	510	508	31	0	
7	0	0	0	0	0	505	512	508	31	0	
8	0	0	0	0	1	505	512	509	31	0	
9	0	0	0	0	0	507	513	506	31	0	
10	0	0	0	0	0	508	511	510	31	0	
11	0	0	0	0	0	507	512	508	31	0	
12	0	0	0	0	0	504	513	509	31	0	
13	0	0	0	0	0	504	514	509	31	0	
14	0	0	0	0	0	504	509	512	31	0	
15	0	0	0	0	0	505	510	509	31	0	
0	0	0	0	0	1	505	511	509	31	0	
1	0	0	0	0	0	504	513	511	31	0	
2	0	0	0	0	0	505	510	512	32	0	
3	0	0	0	0	0	502	511	510	31	0	
4	0	0	0	0	0	506	510	509	31	0	
5	0	0	0	0	0	505	508	510	31	0	
6	0	0	0	0	0	508	511	510	31	0	
7	0	0	0	0	0	505	512	510	31	0	
8	0	0	0	0	1	507	513	507	31	0	
9	0	0	0	0	0	506	515	508	31	0	
10	0	0	0	0	0	505	514	508	31	0	
11	0	0	0	0	0	504	513	508	31	0	
12	0	0	0	0	0	507	513	508	31	0	
13	0	0	0	0	0	504	515	508	31	0	
14	0	0	0	0	0	503	514	509	31	0	
15	0	0	0	0	0	504	512	510	31	0	
0	0	0	0	0	1	505	513	509	31	0	
1	0	0	0	0	0	504	510	512	31	0	
2	0	0	0	0	0	507	511	510	31	0	
3	0	0	0	0	0	505	513	510	31	0	
4	0	0	0	0	0	505	513	510	31	0	
5	0	0	0	0	0	505	515	511	31	0	
6	0	0	0	0	0	505	515	509	31	0	
7	0	0	0	0	0	504	513	509	31	0	
8	0	0	0	0	1	505	512	509	31	0	
9	0	0	0	0	0	508	510	508	31	0	
10	0	0	0	0	0	508	510	508	31	0	
11	0	0	0	0	0	507	512	507	32	0	
12	0	0	0	0	0	506	510	508	31	0	
13	0	0	0	0	0	504	511	508	31	0	
14	0	0	0	0	0	503	511	508	31	0	
15	0	0	0	0	0	505	511	509	31	0	
0	0	0	0	0	1	504	511	510	31	0	
1	0	0	0	0	0	508	511	509	31	0	
2	0	0	0	0	0	505	513	511	31	0	
3	0	0	0	0	0	502	514	511	31	0	
4	0	0	0	0	0	503	512	512	31	0	
5	0	0	0	0	0	503	511	512	32	0	
6	0	0	0	0	0	503	511	513	31	0	
7	0	0	0	0	0	505	511	509	31	0	
8	0	0	0	0	1	506	513	511	31	0	
9	0	0	0	0	0	504	513	510	31	0	
10	0	0	0	0	0	505	512	509	31	0	
11	0	0	0	0	0	507	511	505	31	0	
12	0	0	0	0	0	507	510	507	31	0	
13	0	0	0	0	0	507	512	509	31	0	
14	0	0	0	0	0	504	512	510	31	0	
15	0	0	0	0	0	504	511	508	32	0	
0	0	0	0	0	1	507	512	507	31	0	
1	0	0	0	0	0	508	512	508	31	0	
2	0	0	0	0	0	508	511	508	31	0	
3	0	0	0	0	0	505	514	510	31	0	
4	0	0	0	0	0	505	512	511	31	0	
5	0	0	0	0	0	503	513	510	31	0	
6	0	0	0	0	0	504	513	511	31	0	
7	0	0	0	0	0	504	514	507	31	0	
8	0	0	0	0	1	505	513	509	31	0	
9	0	0	0	0	0	508	512	509	31	0	
10	0	0	0	0	0	504	510	511	31	0	
11	0	0	0	0	0	504	513	510	31	0	
12	0	0	0	0	0	505	513	508	31	0	
13	0	0	0	0	0	504	514	510	31	0	
14	0	0	0	0	0	505	512	510	32	0	
15	0	0	0	0	0	503	510	511	31	0	
0	0	0	0	0	1	504	509	511	31	0	
1	0	0	0	0	0	504	513	509	31	0	
2	0	0	0	0	0	505	515	510	31	0	
3	0	0	0	0	0	508	514	511	31	0	
4	0	0	0	0	0	504	514	510	31	0	
5	0	0	0	0	0	504	512	510	31	0	
6	0	0	0	0	0	505	509	511	31	0	
7	0	0	0	0	0	507	509	511	32	0	
8	0	0	0	0	1	505	508	508	31	0	
9	0	0	0	0	0	505	509	509	32	0	
10	0	0	0	0	0	504	511	510	32	0	
11	0	0	0	0	0	505	510	508	31	0	
12	0	0	0	0	0	505	511	508	31	0	
13	0	0	0	0	0	504	514	508	31	0	
14	0	0	0	0	0	505	513	509	31	0	
15	0	0	0	0	0	502	514	508	31	0	
0	0	0	0	0	1	504	513	510	31	0	
1	0	0	0	0	0	504	512	508	31	0	
2	0	0	0	0	0	505	513	512	31	0	
3	0	0	0	0	0	506	511	510	31	0	
4	0	0	0	0	0	507	513	508	31	0	
5	0	0	0	0	0	505	511	507	31	0	
6	0	0	0	0	0	505	509	507	31	0	
7	0	0	0	0	0	505	514	507	31	0	
8	0	0	0	0	1	506	512	508	31	0	
9	0	0	0	0	0	504	511	509	31	0	
10	0	0	0	0	0	504	511	506	31	0	
11	0	0	0	0	0	505	511	506	31	0	
12	0	0	0	0	0	505	512	507	31	0	
13	0	0	0	0	0	504	513	507	31	0	
14	0	0	0	0	0	504	512	509	31	0	
15	0	0	0	0	0	505	510	509	31	0	
0	0	0	0	0	1	503	510	511	31	0	
1	0	0	0	0	0	504	512	512	31	0	
2	0	0	0	0	0	504	511	512	31	0	
3	0	0	0	0	0	504	514	512	31	0	
4	0	0	0	0	0	503	515	510	31	0	
5	0	0	0	0	0	507	513	508	31	0	
6	0	0	0	0	0	506	512	510	31	0	
7	0	0	0	0	0	505	513	511	31	0	
8	0	0	0	0	1	504	512	515	31	0	
9	0	0	0	0	0	505	511	511	31	0	
10	0	0	0	0	0	506	510	512	32	0	
11	0	0	0	0	0	507	512	508	31	0	
12	0	0	0	0	0	505	512	508	31	0	
13	0	0	0	0	0	504	513	508	31	0	
14	0	0	0	0	0	506	511	508	31	0	
15	0	0	0	0	0	506	512	508	31	0	
0	0	0	0	0	1	505	514	511	31	0	
1	0	0	0	0	0	503	513	508	31	0	
2	0	0	0	0	0	505	515	505	31	0	
3	0	0	0	0	0	507	515	508	31	0	
4	0	0	0	0	0	507	515	508	31	0	
5	0	0	0	0	0	506	514	510	31	0	
6	0	0	0	0	0	505	512	507	31	0	
7	0	0	0	0	0	506	512	512	31	0	
8	0	0	0	0	1	504	511	512	31	0	
9	0	0	0	0	0	507	512	510	31	0	
10	0	0	0	0	0	505	511	511	31	0	
11	0	0	0	0	0	507	511	508	31	0	
12	0	0	0	0	0	505	513	509	31	0	
13	0	0	0	0	0	505	511	507	31	0	
14	0	0	0	0	0	504	509	508	31	0	
15	0	0	0	0	0	504	511	507	31	0	
0	0	0	0	0	1	505	510	508	32	0	
1	0	0	0	0	0	507	510	511	31	0	
2	0	0	0	0	0	505	512	511	31	0	
3	0	0	0	0	0	503	513	512	31	0	
4	0	0	0	0	0	503	513	513	31	0	
5	0	0	0	0	0	503	511	512	31	0	
6	0	0	0	0	0	503	511	511	31	0	
7	0	0	0	0	0	504	514	509	31	0	
8	0	0	0	0	1	504	511	508	32	0	
9	0	0	0	0	0	506	511	510	31	0	
10	0	0	0	0	0	503	513	512	31	0	
11	0	0	0	0	0	504	513	508	31	0	
12	0	0	0	0	0	504	511	508	31	0	
13	0	0	0	0	0	504	513	508	31	0	
14	0	0	0	0	0	505	512	507	31	0	
15	0	0	0	0	0	508	513	512	31	0	
0	0	0	0	0	1	504	512	507	31	0	
1	0	0	0	0	0	506	513	508	31	0	
2	0	0	0	0	0	508	508	507	31	0	
3	0	0	0	0	0	506	511	507	31	0	
4	0	0	0	0	0	505	512	508	31	0	
5	0	0	0	0	0	507	512	510	31	0	
6	0	0	0	0	0	505	513	511	31	0	
7	0	0	0	0	0	504	511	510	31	0	
8	0	0	0	0	0	504	512	511	31	0	
9	0	0	0	0	0	504	509	511	31	0	
10	0	0	0	0	0	505	511	510	31	0	
11	0	0	0	0	0	506	514	510	31	0	
12	0	0	0	0	0	504	513	509	31	0	
13	0	0	0	0	0	505	513	508	31	0	
14	0	0	0	0	0	503	509	508	31	0	
15	0	0	0	0	0	503	513	509	31	0	
0	0	0	0	0	0	506	513	508	31	0	
1	0	0	0	0	0	506	512	505	31	0	
2	0	0	0	0	0	506	513	509	31	0	
3	0	0	0	0	0	504	512	508	32	0	
4	0	0	0	0	0	503	511	510	32	0	
5	0	0	0	0	0	504	513	509	32	0	
6	0	0	0	0	0	505	511	510	32	0	
7	0	0	0	0	0	506	512	512	31	0	
8	0	0	0	0	1	504	511	510	31	0	
9	0	0	0	0	0	506	508	508	31	0	
10	0	0	0	0	0	504	510	507	31	0	
11	0	0	0	0	0	504	507	508	31	0	
12	0	0	0	0	0	504	509	510	31	0	
13	0	0	0	0	0	502	511	512	31	0	
14	0	0	0	0	0	504	511	509	31	0	
15	0	0	0	0	0	505	511	510	31	0	
0	0	0	0	0	1	507	513	510	31	0	
1	0	0	0	0	0	506	512	510	31	0	
2	0	0	0	0	0	507	513	506	31	0	
3	0	0	0	0	0	507	515	504	31	0	
4	0	0	0	0	0	507	513	506	31	0	
5	0	0	0	0	0	504	513	509	31	0	
6	0	0	0	0	0	505	512	511	31	0	
7	0	0	0	0	0	505	514	510	31	0	
8	0	0	0	0	1	504	515	513	31	0	
9	0	0	0	0	0	504	513	511	31	0	
10	0	0	0	0	0	508	515	511	31	0	
11	0	0	0	0	0	504	514	510	31	0	
12	0	0	0	0	0	504	512	509	31	0	
13	0	0	0	0	0	505	511	508	31	0	
14	0	0	0	0	0	506	510	508	31	0	
15	0	0	0	0	0	504	512	508	31	0	
0	0	0	0	0	1	504	512	508	31	0	
1	0	0	0	0	0	502	512	508	31	0	
2	0	0	0	0	0	503	511	510	32	0	
3	0	0	0	0	0	504	511	511	31	0	
4	0	0	0	0	0	504	510	510	31	0	
5	0	0	0	0	0	504	513	510	31	0	
6	0	0	0	0	0	505	515	508	31	0	
7	0	0	0	0	0	508	515	509	31	0	
8	0	0	0	0	1	506	514	511	31	0	
9	0	0	0	0	0	507	513	509	31	0	
10	0	0	0	0	0	505	515	510	31	0	
11	0	0	0	0	0	507	510	509	31	0	
12	0	0	0	0	0	508	511	505	31	0	
13	0	0	0	0	0	506	510	508	31	0	
14	0	0	0	0	0	506	511	509	31	0	
15	0	0	0	0	0	505	510	509	32	0	
0	0	0	0	0	1	504	510	507	31	0	
1	0	0	0	0	0	502	509	509	31	0	
2	0	0	0	0	0	500	512	511	31	0	
3	0	0	0	0	0	502	512	512	31	0	
4	0	0	0	0	0	505	512	511	31	0	
5	0	0	0	0	0	505	510	507	31	0	
6	0	0	0	0	0	505	511	508	31	0	
7	0	0	0	0	0	505	511	509	31	0	
8	0	0	0	0	1	505	513	507	32	0	
9	0	0	0	0	0	507	515	509	31	0	
10	0	0	0	0	0	505	514	512	31	0	
11	0	0	0	0	0	505	513	510	31	0	
12	0	0	0	0	0	506	514	511	31	0	
13	0	0	0	0	0	504	512	508	31	0	
14	0	0	0	0	0	505	512	511	31	0	
15	0	0	0	0	0	505	513	508	31	0	
0	0	0	0	0	1	504	512	508	31	0	
1	0	0	0	0	0	508	511	510	31	0	
2	0	0	0	0	0	506	511	508	31	0	
3	0	0	0	0	0	505	514	509	31	0	
4	0	0	0	0	0	504	512	509	31	0	
5	0	0	0	0	0	505	509	508	31	0	
6	0	0	0	0	0	504	510	510	31	0	
7	0	0	0	0	0	505	509	510	31	0	
8	0	0	0	0	1	505	511	510	31	0	
9	0	0	0	0	0	506	511	512	31	0	
10	0	0	0	0	0	505	511	510	31	0	
11	0	0	0	0	0	505	511	508	31	0	
12	0	0	0	0	0	507	512	508	31	0	
13	0	0	0	0	0	504	511	510	31	0	
14	0	0	0	0	0	504	510	511	31	0	
15	0	0	0	0	0	507	510	505	31	0	
0	0	0	0	0	1	505	511	506	31	0	
1	0	0	0	0	0	504	511	511	31	0	
2	0	0	0	0	0	504	512	512	32	0	
3	0	0	0	0	0	505	515	512	31	0	
4	0	0	0	0	0	504	512	510	31	0	
5	0	0	0	0	0	504	512	510	31	0	
6	0	0	0	0	0	507	512	507	31	0	
7	0	0	0	0	0	504	512	504	31	0	
8	0	0	0	0	1	504	512	508	31	0	
9	0	0	0	0	0	505	515	510	31	0	
10	0	0	0	0	0	503	512	510	31	0	
11	0	0	0	0	0	504	515	512	31	0	
12	0	0	0	0	0	505	515	512	32	0	
13	0	0	0	0	0	507	514	512	32	0	
14	0	0	0	0	0	506	511	510	31	0	
15	0	0	0	0	0	504	510	509	31	0	
0	0	0	0	0	1	506	512	508	32	0	
1	0	0	0	0	0	507	510	508	31	0	
2	0	0	0	0	0	505	513	509	31	0	
3	0	0	0	0	0	506	514	508	31	0	
4	0	0	0	0	0	504	512	509	31	0	
5	0	0	0	0	0	503	512	508	31	0	
6	0	0	0	0	0	503	512	510	31	0	
7	0	0	0	0	0	503	510	508	31	0	
8	0	0	0	0	1	505	512	508	31	0	
9	0	0	0	0	0	508	512	507	31	0	
10	0	0	0	0	0	506	512	508	31	0	
11	0	0	0	0	0	508	512	508	31	0	
12	0	0	0	0	0	507	509	508	31	0	
13	0	0	0	0	0	505	509	510	31	0	
14	0	0	0	0	0	502	510	509	31	0	
15	0	0	0	0	0	504	512	510	31	0	
0	0	0	0	0	1	504	515	511	32	0	
1	0	0	0	0	0	503	513	510	31	0	
2	0	0	0	0	0	503	513	511	31	0	
3	0	0	0	0	0	502	513	509	32	0	
4	0	0	0	0	0	505	509	508	31	0	
5	0	0	0	0	0	505	511	509	31	0	
6	0	0	0	0	0	507	512	510	31	0	
7	0	0	0	0	0	506	515	506	31	0	
8	0	0	0	0	1	505	512	507	31	0	
9	0	0	0	0	0	507	509	508	31	0	
10	0	0	0	0	0	504	511	510	31	0	
11	0	0	0	0	0	503	511	511	31	0	
12	0	0	0	0	0	505	513	511	31	0	
13	0	0	0	0	0	505	512	511	31	0	
14	0	0	0	0	0	507	513	509	31	0	
15	0	0	0	0	0	507	514	508	31	0	
0	0	0	0	0	1	508	511	508	31	0	
1	0	0	0	0	0	508	511	503	31	0	
2	0	0	0	0	0	508	513	507	31	0	
3	0	0	0	0	0	505	513	509	31	0	
4	0	0	0	0	0	505	516	509	31	0	
5	0	0	0	0	0	501	515	510	31	0	
6	0	0	0	0	0	504	513	511	31	0	
7	0	0	0	0	0	503	511	510	31	0	
8	0	0	0	0	1	504	511	511	31	0	
9	0	0	0	0	0	504	509	512	32	0	
10	0	0	0	0	0	502	509	511	32	0	
11	0	0	0	0	0	502	511	509	32	0	
12	0	0	0	0	0	503	511	509	32	0	
13	0	0	0	0	0	505	511	512	31	0	
14	0	0	0	0	0	508	513	508	31	0	
15	0	0	0	0	0	507	511	509	31	0	
0	0	0	0	0	1	505	512	509	31	0	
1	0	0	0	0	0	507	512	510	31	0	
2	0	0	0	0	0	507	509	507	31	0	
3	0	0	0	0	0	506	512	508	31	0	
4	0	0	0	0	0	504	513	510	31	0	
5	0	0	0	0	0	506	513	509	32	0	
6	0	0	0	0	0	507	515	510	31	0	
7	0	0	0	0	0	508	512	511	32	0	
8	0	0	0	0	1	506	512	508	32	0	
9	0	0	0	0	0	504	513	508	31	0	
10	0	0	0	0	0	504	514	507	31	0	
11	0	0	0	0	0	504	513	508	31	0	
12	0	0	0	0	0	504	511	508	31	0	
13	0	0	0	0	0	505	511	510	31	0	
14	0	0	0	0	0	505	513	511	31	0	
15	0	0	0	0	0	505	513	512	31	0	
0	0	0	0	0	1	504	512	512	31	0	
1	0	0	0	0	0	505	512	511	31	0	
2	0	0	0	0	0	504	511	508	31	0	
3	0	0	0	0	0	503	511	509	31	0	
4	0	0	0	0	0	507	511	508	31	0	
5	0	0	0	0	0	505	512	508	31	0	
6	0	0	0	0	0	506	513	507	31	0	
7	0	0	0	0	0	504	513	508	31	0	
8	0	0	0	0	1	507	514	508	31	0	
9	0	0	0	0	0	508	514	505	31	0	
10	0	0	0	0	0	506	514	506	31	0	
11	0	0	0	0	0	504	511	510	31	0	
12	0	0	0	0	0	505	511	512	31	0	
13	0	0	0	0	0	505	514	512	31	0	
14	0	0	0	0	0	504	512	512	32	0	
15	0	0	0	0	0	505	511	510	31	0	
0	0	0	0	0	1	504	509	510	31	0	
1	0	0	0	0	0	503	510	510	31	0	
2	0	0	0	0	0	505	511	509	31	0	
3	0	0	0	0	0	504	512	508	31	0	
4	0	0	0	0	0	505	511	507	31	0	
5	0	0	0	0	0	507	513	511	31	0	
6	0	0	0	0	0	508	515	511	31	0	
7	0	0	0	0	0	507	513	506	31	0	
8	0	0	0	0	1	504	511	510	31	0	
9	0	0	0	0	0	505	510	508	31	0	
10	0	0	0	0	0	503	511	509	31	0	
11	0	0	0	0	0	504	510	510	31	0	
12	0	0	0	0	0	504	508	510	31	0	
13	0	0	0	0	0	505	513	511	31	0	
14	0	0	0	0	0	504	512	508	31	0	
15	0	0	0	0	0	507	512	508	31	0	
0	0	0	0	0	1	507	512	508	31	0	
1	0	0	0	0	0	507	511	510	31	0	
2	0	0	0	0	0	507	514	509	31	0	
3	0	0	0	0	0	506	512	507	31	0	
4	0	0	0	0	0	507	513	506	31	0	
5	0	0	0	0	0	504	511	507	31	0	
6	0	0	0	0	0	505	508	507	31	0	
7	0	0	0	0	0	505	510	509	31	0	
8	0	0	0	0	1	505	511	510	31	0	
9	0	0	0	0	0	503	513	508	31	0	
10	0	0	0	0	0	504	513	511	31	0	
11	0	0	0	0	0	503	510	510	31	0	
12	0	0	0	0	0	507	511	505	31	0	
13	0	0	0	0	0	505	514	508	31	0	
14	0	0	0	0	0	504	511	512	31	0	
15	0	0	0	0	0	505	513	511	32	0	
0	0	0	0	0	1	504	514	510	31	0	
1	0	0	0	0	0	507	514	509	31	0	
2	0	0	0	0	0	508	511	511	31	0	
3	0	0	0	0	0	506	510	511	31	0	
4	0	0	0	0	0	505	510	511	31	0	
5	0	0	0	0	0	503	513	510	31	0	
6	0	0	0	0	0	505	514	508	31	0	
7	0	0	0	0	0	503	513	507	31	0	
8	0	0	0	0	0	505	514	508	31	0	
9	0	0	0	0	0	504	512	508	31	0	
10	0	0	0	0	0	503	512	508	31	0	
11	0	0	0	0	0	505	513	510	32	0	
12	0	0	0	0	0	505	515	511	32	0	
13	0	0	0	0	0	504	512	511	32	0	
14	0	0	0	0	0	502	514	510	31	0	
15	0	0	0	0	0	504	511	507	31	0	
0	0	0	0	0	0	503	509	509	31	0	
1	0	0	0	0	0	504	510	509	31	0	
2	0	0	0	0	0	505	510	512	31	0	
3	0	0	0	0	0	507	511	511	31	0	
4	0	0	0	0	0	506	508	508	31	0	
5	0	0	0	0	0	507	511	509	31	0	
6	0	0	0	0	0	504	511	505	31	0	
7	0	0	0	0	0	505	515	505	31	0	
8	0	0	0	0	1	505	516	504	31	0	
9	0	0	0	0	0	506	515	505	31	0	
10	0	0	0	0	0	507	514	509	31	0	
11	0	0	0	0	0	505	513	509	31	0	
12	0	0	0	0	0	508	512	508	31	0	
13	0	0	0	0	0	507	513	508	31	0	
14	0	0	0	0	0	505	514	508	31	0	
15	0	0	0	0	0	506	509	512	31	0	
0	0	0	0	0	1	507	510	509	32	0	
1	0	0	0	0	0	507	513	511	31	0	
2	0	0	0	0	0	506	510	508	31	0	
3	0	0	0	0	0	504	512	508	31	0	
4	0	0	0	0	0	504	512	510	31	0	
5	0	0	0	0	0	505	510	511	31	0	
6	0	0	0	0	0	507	511	513	31	0	
7	0	0	0	0	0	505	512	506	31	0	
8	0	0	0	0	1	505	513	509	31	0	
9	0	0	0	0	0	503	511	511	31	0	
10	0	0	0	0	0	501	512	511	31	0	
11	0	0	0	0	0	503	514	508	31	0	
12	0	0	0	0	0	503	513	511	31	0	
13	0	0	0	0	0	504	512	507	31	0	
14	0	0	0	0	0	507	514	510	31	0	
15	0	0	0	0	0	506	513	510	31	0	
0	0	0	0	0	1	505	511	511	31	0	
1	0	0	0	0	0	504	512	509	31	0	
2	0	0	0	0	0	505	508	509	32	0	
3	0	0	0	0	0	504	508	511	31	0	
4	0	0	0	0	0	504	508	511	31	0	
5	0	0	0	0	0	505	510	509	31	0	
6	0	0	0	0	0	505	512	512	31	0	
7	0	0	0	0	0	507	514	507	32	0	
8	0	0	0	0	1	508	517	507	31	0	
9	0	0	0	0	0	507	518	506	31	0	
10	0	0	0	0	0	506	512	507	31	0	
11	0	0	0	0	0	504	513	507	31	0	
12	0	0	0	0	0	504	513	507	31	0	
13	0	0	0	0	0	504	511	509	31	0	
14	0	0	0	0	0	503	510	508	31	0	
15	0	0	0	0	0	506	512	506	31	0	
0	0	0	0	0	1	505	510	508	31	0	
1	0	0	0	0	0	504	510	511	31	0	
2	0	0	0	0	0	502	512	512	32	0	
3	0	0	0	0	0	505	511	510	31	0	
4	0	0	0	0	0	505	510	511	31	0	
5	0	0	0	0	0	505	510	513	32	0	
6	0	0	0	0	0	509	511	511	31	0	
7	0	0	0	0	0	506	513	511	31	0	
8	0	0	0	0	1	507	511	510	32	0	
9	0	0	0	0	0	505	513	508	31	0	
10	0	0	0	0	0	505	511	510	31	0	
11	0	0	0	0	0	502	511	508	31	0	
12	0	0	0	0	0	503	513	508	31	0	
13	0	0	0	0	0	500	511	507	31	0	
14	0	0	0	0	0	504	512	508	31	0	
15	0	0	0	0	0	505	513	508	31	0	
0	0	0	0	0	1	503	515	510	31	0	
1	0	0	0	0	0	503	515	508	31	0	
2	0	0	0	0	0	504	513	511	31	0	
3	0	0	0	0	0	505	515	510	31	0	
4	0	0	0	0	0	504	513	512	31	0	
5	0	0	0	0	0	505	510	511	31	0	
6	0	0	0	0	0	505	510	511	31	0	
7	0	0	0	0	0	505	510	511	32	0	
8	0	0	0	0	1	506	511	510	31	0	
9	0	0	0	0	0	505	510	510	31	0	
10	0	0	0	0	0	508	508	507	31	0	
11	0	0	0	0	0	506	506	508	32	0	
12	0	0	0	0	0	508	510	507	32	0	
13	0	0	0	0	0	507	512	509	31	0	
14	0	0	0	0	0	508	513	509	31	0	
15	0	0	0	0	0	504	516	507	31	0	
0	0	0	0	0	1	504	513	508	31	0	
1	0	0	0	0	0	505	512	509	31	0	
2	0	0	0	0	0	505	513	508	31	0	
3	0	0	0	0	0	507	515	507	31	0	
4	0	0	0	0	0	506	510	508	31	0	
5	0	0	0	0	0	506	511	509	31	0	
6	0	0	0	0	0	504	511	509	31	0	
7	0	0	0	0	0	504	510	508	31	0	
8	0	0	0	0	1	502	512	511	31	0	
9	0	0	0	0	0	504	516	512	31	0	
10	0	0	0	0	0	504	512	511	31	0	
11	0	0	0	0	0	503	511	512	32	0	
12	0	0	0	0	0	507	513	511	31	0	
13	0	0	0	0	0	504	513	508	31	0	
14	0	0	0	0	0	504	514	504	31	0	
15	0	0	0	0	0	505	514	507	31	0	
0	0	0	0	0	1	508	512	507	31	0	
1	0	0	0	0	0	509	510	511	31	0	
2	0	0	0	0	0	504	512	511	31	0	
3	0	0	0	0	0	504	509	511	32	0	
4	0	0	0	0	0	504	511	510	32	0	
5	0	0	0	0	0	502	512	512	32	0	
6	0	0	0	0	0	505	511	508	31	0	
7	0	0	0	0	0	508	509	508	31	0	
8	0	0	0	0	1	505	512	508	31	0	
9	0	0	0	0	0	505	512	511	31	0	
10	0	0	0	0	0	507	512	510	31	0	
11	0	0	0	0	0	507	510	511	31	0	
12	0	0	0	0	0	505	511	508	31	0	
13	0	0	0	0	0	508	514	508	31	0	
14	0	0	0	0	0	503	512	509	31	0	
15	0	0	0	0	0	504	512	510	31	0	
0	0	0	0	0	1	502	508	511	31	0	
1	0	0	0	0	0	499	511	512	31	0	
2	0	0	0	0	0	502	514	511	31	0	
3	0	0	0	0	0	504	516	510	31	0	
4	0	0	0	0	0	503	514	514	32	0	
5	0	0	0	0	0	504	515	513	31	0	
6	0	0	0	0	0	509	515	507	31	0	
7	0	0	0	0	0	511	510	507	31	0	
8	0	0	0	0	1	512	511	504	32	0	
9	0	0	0	0	0	511	514	506	31	0	
10	0	0	0	0	0	509	513	505	31	0	
11	0	0	0	0	0	507	512	508	31	0	
12	0	0	0	0	0	500	513	507	31	0	
13	0	0	0	0	0	500	514	510	31	0	
14	0	0	0	0	0	498	512	512	31	0	
15	0	0	0	0	0	500	511	510	31	0	
0	0	0	0	0	1	503	511	510	31	0	
1	0	0	0	0	0	507	511	506	31	0	
2	0	0	0	0	0	506	512	508	31	0	
3	0	0	0	0	0	510	515	506	31	0	
4	0	0	0	0	0	510	514	509	31	0	
5	0	0	0	0	0	506	511	510	32	0	
6	0	0	0	0	0	504	514	508	31	0	
7	0	0	0	0	0	508	513	507	31	0	
8	0	0	0	0	1	507	513	508	31	0	
9	0	0	0	0	0	505	509	511	31	0	
10	0	0	0	0	0	503	510	512	31	0	
11	0	0	0	0	0	505	509	512	32	0	
12	0	0	0	0	0	503	508	511	32	0	
13	0	0	0	0	0	504	509	510	32	0	
14	0	0	0	0	0	505	512	509	31	0	
15	0	0	0	0	0	505	510	509	31	0	
0	0	0	0	0	1	504	509	510	32	0	
1	0	0	0	0	0	503	511	511	32	0	
2	0	0	0	0	0	504	515	510	31	0	
3	0	0	0	0	0	503	515	511	31	0	
4	0	0	0	0	0	504	515	511	31	0	
5	0	0	0	0	0	504	512	511	31	0	
6	0	0	0	0	0	507	514	505	31	0	
7	0	0	0	0	0	507	510	504	31	0	
8	0	0	0	0	1	505	509	504	31	0	
9	0	0	0	0	0	504	510	509	31	0	
10	0	0	0	0	0	504	510	511	31	0	
11	0	0	0	0	0	505	516	512	31	0	
12	0	0	0	0	0	506	513	510	31	0	
13	0	0	0	0	0	504	515	511	31	0	
14	0	0	0	0	0	505	511	511	32	0	
15	0	0	0	0	0	505	513	511	31	0	
0	0	0	0	0	1	504	515	508	31	0	
1	0	0	0	0	0	503	513	509	31	0	
2	0	0	0	0	0	503	513	508	31	0	
3	0	0	0	0	0	508	511	511	31	0	
4	0	0	0	0	0	505	512	508	31	0	
5	0	0	0	0	0	508	512	505	31	0	
6	0	0	0	0	0	510	512	502	31	0	
7	0	0	0	0	0	506	510	503	31	0	
8	0	0	0	0	1	503	508	509	31	0	
9	0	0	0	0	0	501	508	516	31	0	
10	0	0	0	0	0	503	511	510	31	0	
11	0	0	0	0	0	504	511	512	32	0	
12	0	0	0	0	0	510	515	512	32	0	
13	0	0	0	0	0	506	515	510	31	0	
14	0	0	0	0	0	504	516	507	31	0	
15	0	0	0	0	0	503	515	509	31	0	
0	0	0	0	0	1	500	513	510	31	0	
1	0	0	0	0	0	504	511	510	31	0	
2	0	0	0	0	0	505	502	510	32	0	
3	0	0	0	0	0	507	502	511	32	0	
4	0	0	0	0	0	505	509	511	31	0	
5	0	0	0	0	0	504	512	507	31	0	
6	0	0	0	0	0	507	516	508	31	0	
7	0	0	0	0	0	508	517	507	31	0	
8	0	0	0	0	1	508	514	508	31	0	
9	0	0	0	0	0	507	515	513	32	0	
10	0	0	0	0	0	504	520	516	32	0	
11	0	0	0	0	0	504	520	514	31	0	
12	0	0	0	0	0	508	521	510	31	0	
13	0	0	0	0	0	508	524	510	31	0	
14	0	0	0	0	0	503	518	508	31	0	
15	0	0	0	0	0	504	512	505	31	0	
0	0	0	0	0	1	500	507	504	31	0	
1	0	0	0	0	0	499	498	502	31	0	
2	0	0	0	0	0	499	486	507	32	0	
3	0	0	0	0	0	502	495	514	32	0	
4	0	0	0	0	0	504	507	511	32	0	
5	0	0	0	0	0	508	515	512	32	0	
6	0	0	0	0	0	509	521	511	31	0	
7	0	0	0	0	0	504	518	507	31	0	
8	0	0	0	0	0	507	515	508	31	0	
9	0	0	0	0	0	504	515	512	31	0	
10	0	0	0	0	0	504	512	513	32	0	
11	0	0	0	0	0	503	510	513	32	0	
12	0	0	0	0	0	506	510	511	31	0	
13	0	0	0	0	0	508	513	506	31	0	
14	0	0	0	0	0	511	512	503	31	0	
15	0	0	0	0	0	510	514	505	31	0	
0	0	0	0	0	1	511	510	504	31	0	
1	0	0	0	0	0	511	512	505	31	0	
2	0	0	0	0	0	503	512	508	31	0	
3	0	0	0	0	0	501	513	510	32	0	
4	0	0	0	0	0	504	512	511	31	0	
5	0	0	0	0	0	501	515	511	31	0	
6	0	0	0	0	0	500	514	512	31	0	
7	0	0	0	0	0	506	512	511	31	0	
8	0	0	0	0	0	509	513	512	31	0	
9	0	0	0	0	0	507	513	510	31	0	
10	0	0	0	0	0	509	512	508	32	0	
11	0	0	0	0	0	505	514	510	31	0	
12	0	0	0	0	0	502	515	515	32	0	
13	0	0	0	0	0	504	520	511	31	0	
14	0	0	0	0	0	501	518	507	31	0	
15	0	0	0	0	0	501	516	509	31	0	
0	0	0	0	0	1	498	509	511	31	0	
1	0	0	0	0	0	503	508	508	31	0	
2	0	0	0	0	0	503	503	506	31	0	
3	0	0	0	0	0	507	501	508	31	0	
4	0	0	0	0	0	510	503	507	32	0	
5	0	0	0	0	0	507	508	510	32	0	
6	0	0	0	0	0	511	515	505	32	0	
7	0	0	0	0	0	515	513	506	32	0	
8	0	0	0	0	1	509	520	508	31	0	
9	0	0	0	0	0	507	520	508	31	0	
10	0	0	0	0	0	499	519	508	30	0	
11	0	0	0	0	0	496	515	508	31	0	
12	0	0	0	0	0	500	505	510	31	0	
13	0	0	0	0	0	500	508	513	31	0	
14	0	0	0	0	0	501	513	515	32	0	
15	0	0	0	0	0	504	511	510	31	0	
0	0	0	0	0	1	507	505	508	32	0	
1	0	0	0	0	0	508	511	507	31	0	
2	0	0	0	0	0	504	511	508	31	0	
3	0	0	0	0	0	504	510	508	31	0	
4	0	0	0	0	0	504	511	508	32	0	
5	0	0	0	0	0	504	514	511	32	0	
6	0	0	0	0	0	505	516	514	32	0	
7	0	0	0	0	0	508	513	514	32	0	
8	0	0	0	0	1	510	516	507	31	0	
9	0	0	0	0	0	511	512	508	31	0	
10	0	0	0	0	0	509	507	504	31	0	
11	0	0	0	0	0	506	508	504	31	0	
12	0	0	0	0	0	506	508	510	32	0	
13	0	0	0	0	0	502	508	515	32	0	
14	0	0	0	0	0	508	510	513	31	0	
15	0	0	0	0	0	513	514	509	32	0	
0	0	0	0	0	1	508	517	509	31	0	
1	0	0	0	0	0	502	519	505	31	0	
2	0	0	0	0	0	497	520	508	31	0	
3	0	0	0	0	0	491	514	510	31	0	
4	0	0	0	0	0	492	508	516	31	0	
5	0	0	0	0	0	496	512	513	31	0	
6	0	0	0	0	0	503	508	510	31	0	
7	0	0	0	0	0	502	503	511	32	0	
8	0	0	0	0	1	504	508	514	32	0	
9	0	0	0	0	0	505	515	507	31	0	
10	0	0	0	0	0	512	518	504	31	0	
11	0	0	0	0	0	515	512	504	31	0	
12	0	0	0	0	0	516	512	504	31	0	
13	0	0	0	0	0	514	513	502	31	0	
14	0	0	0	0	0	511	513	508	31	0	
15	0	0	0	0	0	505	512	509	31	0	
0	0	0	0	0	1	508	510	507	32	0	
1	0	0	0	0	0	509	507	507	32	0	
2	0	0	0	0	0	502	507	514	32	0	
3	0	0	0	0	0	497	509	513	32	0	
4	0	0	0	0	0	499	519	512	31	0	
5	0	0	0	0	0	499	524	513	31	0	
6	0	0	0	0	0	504	526	508	31	0	
7	0	0	0	0	0	513	512	500	31	0	
8	0	0	0	0	1	509	505	504	31	0	
9	0	0	0	0	0	506	502	507	31	0	
10	0	0	0	0	0	505	507	511	31	0	
11	0	0	0	0	0	501	515	515	31	0	
12	0	0	0	0	0	502	517	515	31	0	
13	0	0	0	0	0	511	518	510	31	0	
14	0	0	0	0	0	512	509	502	31	0	
15	0	0	0	0	0	503	508	508	32	0	
0	0	0	0	0	1	496	515	517	32	0	
1	0	0	0	0	0	499	520	516	32	0	
2	0	0	0	0	0	507	514	512	31	0	
3	0	0	0	0	0	510	512	506	31	0	
4	0	0	0	0	0	509	506	502	32	0	
5	0	0	0	0	0	510	502	502	32	0	
6	0	0	0	0	0	502	501	510	32	0	
7	0	0	0	0	0	501	505	508	32	0	
8	0	0	0	0	1	500	508	512	31	0	
9	0	0	0	0	0	501	514	513	31	0	
10	0	0	0	0	0	504	514	509	31	0	
11	0	0	0	0	0	503	511	512	31	0	
12	0	0	0	0	0	502	511	511	31	0	
13	0	0	0	0	0	502	513	511	32	0	
14	0	0	0	0	0	502	517	515	31	0	
15	0	0	0	0	0	502	516	513	31	0	
0	0	0	0	0	1	504	513	511	31	0	
1	0	0	0	0	0	507	514	506	31	0	
2	0	0	0	0	0	510	511	505	31	0	
3	0	0	0	0	0	509	513	506	31	0	
4	0	0	0	0	0	508	517	504	31	0	
5	0	0	0	0	0	511	517	504	31	0	
6	0	0	0	0	0	506	515	507	31	0	
7	0	0	0	0	0	508	508	508	31	0	
8	0	0	0	0	1	508	512	508	31	0	
9	0	0	0	0	0	508	516	508	31	0	
10	0	0	0	0	0	508	515	506	31	0	
11	0	0	0	0	0	505	510	508	31	0	
12	0	0	0	0	0	503	499	511	32	0	
13	0	0	0	0	0	504	504	514	32	0	
14	0	0	0	0	0	507	509	514	32	0	
15	0	0	0	0	0	513	513	510	32	0	
0	0	0	0	0	1	511	515	509	32	0	
1	0	0	0	0	0	503	521	507	31	0	
2	0	0	0	0	0	499	521	507	31	0	
3	0	0	0	0	0	497	516	509	31	0	
4	0	0	0	0	0	501	505	509	31	0	
5	0	0	0	0	0	511	509	509	32	0	
6	0	0	0	0	0	513	512	507	32	0	
7	0	0	0	0	0	511	516	507	31	0	
8	0	0	0	0	1	504	514	508	31	0	
9	0	0	0	0	0	498	510	511	31	0	
10	0	0	0	0	0	495	503	512	31	0	
11	0	0	0	0	0	496	506	515	32	0	
12	0	0	0	0	0	499	515	515	31	0	
13	0	0	0	0	0	501	515	510	31	0	
14	0	0	0	0	0	505	513	505	31	0	
15	0	0	0	0	0	505	516	505	31	0	
0	0	0	0	0	1	505	513	509	31	0	
1	0	0	0	0	0	509	513	508	31	0	
2	0	0	0	0	0	506	506	510	32	0	
3	0	0	0	0	0	508	511	511	32	0	
4	0	0	0	0	0	507	511	505	32	0	
5	0	0	0	0	0	510	509	509	32	0	
6	0	0	0	0	0	508	511	509	32	0	
7	0	0	0	0	0	509	509	508	32	0	
8	0	0	0	0	1	504	511	511	31	0	
9	0	0	0	0	0	503	513	511	31	0	
10	0	0	0	0	0	506	513	511	31	0	
11	0	0	0	0	0	507	510	507	31	0	
12	0	0	0	0	0	509	510	504	31	0	
13	0	0	0	0	0	504	512	511	31	0	
14	0	0	0	0	0	504	511	509	31	0	
15	0	0	0	0	0	505	511	508	31	0	
0	0	0	0	0	1	501	512	511	31	0	
1	0	0	0	0	0	500	513	511	31	0	
2	0	0	0	0	0	505	507	510	32	0	
3	0	0	0	0	0	505	510	510	32	0	
4	0	0	0	0	0	504	515	510	31	0	
5	0	0	0	0	0	504	517	510	31	0	
6	0	0	0	0	0	505	513	511	31	0	
7	0	0	0	0	0	508	513	507	31	0	
8	0	0	0	0	1	504	515	506	31	0	
9	0	0	0	0	0	508	515	504	31	0	
10	0	0	0	0	0	508	512	507	31	0	
11	0	0	0	0	0	507	512	505	31	0	
12	0	0	0	0	0	502	511	507	31	0	
13	0	0	0	0	0	501	516	510	31	0	
14	0	0	0	0	0	505	516	513	31	0	
15	0	0	0	0	0	505	513	511	31	0	
0	0	0	0	0	1	508	512	509	31	0	
1	0	0	0	0	0	505	513	509	31	0	
2	0	0	0	0	0	501	513	511	32	0	
3	0	0	0	0	0	499	512	513	31	0	
4	0	0	0	0	0	502	507	515	32	0	
5	0	0	0	0	0	504	511	512	31	0	
6	0	0	0	0	0	505	508	508	32	0	
7	0	0	0	0	0	513	504	505	32	0	
8	0	0	0	0	1	509	508	506	31	0	
9	0	0	0	0	0	509	515	507	31	0	
10	0	0	0	0	0	508	516	506	31	0	
11	0	0	0	0	0	505	514	509	31	0	
12	0	0	0	0	0	504	515	511	31	0	
13	0	0	0	0	0	503	511	511	32	0	
14	0	0	0	0	0	504	510	510	32	0	
15	0	0	0	0	0	504	508	512	32	0	
0	0	0	0	0	1	502	508	511	32	0	
1	0	0	0	0	0	500	510	512	31	0	
2	0	0	0	0	0	503	510	509	31	0	
3	0	0	0	0	0	505	514	510	31	0	
4	0	0	0	0	0	505	516	508	31	0	
5	0	0	0	0	0	504	518	508	31	0	
6	0	0	0	0	0	508	518	507	31	0	
7	0	0	0	0	0	508	514	504	31	0	
8	0	0	0	0	1	512	515	502	31	0	
9	0	0	0	0	0	512	519	502	31	0	
10	0	0	0	0	0	506	514	506	31	0	
11	0	0	0	0	0	503	508	512	31	0	
12	0	0	0	0	0	502	507	511	32	0	
13	0	0	0	0	0	506	510	512	32	0	
14	0	0	0	0	0	504	508	510	32	0	
15	0	0	0	0	0	501	506	514	32	0	
0	0	0	0	0	1	499	510	515	32	0	
1	0	0	0	0	0	504	508	514	32	0	
2	0	0	0	0	0	504	513	510	32	0	
3	0	0	0	0	0	506	515	509	32	0	
4	0	0	0	0	0	506	513	508	31	0	
5	0	0	0	0	0	508	511	507	31	0	
6	0	0	0	0	0	506	512	508	31	0	
7	0	0	0	0	0	508	514	507	31	0	
8	0	0	0	0	1	508	514	507	31	0	
9	0	0	0	0	0	507	513	505	31	0	
10	0	0	0	0	0	504	508	505	31	0	
11	0	0	0	0	0	499	509	508	31	0	
12	0	0	0	0	0	497	511	508	31	0	
13	0	0	0	0	0	500	509	508	31	0	
14	0	0	0	0	0	504	511	510	31	0	
15	0	0	0	0	0	507	514	513	32	0	
0	0	0	0	0	1	506	513	510	32	0	
1	0	0	0	0	0	507	513	511	31	0	
2	0	0	0	0	0	507	515	513	31	0	
3	0	0	0	0	0	506	514	509	31	0	
4	0	0	0	0	0	504	517	510	31	0	
5	0	0	0	0	0	507	519	508	31	0	
6	0	0	0	0	0	507	521	508	31	0	
7	0	0	0	0	0	509	518	507	31	0	
8	0	0	0	0	1	510	512	508	31	0	
9	0	0	0	0	0	510	508	510	31	0	
10	0	0	0	0	0	508	508	509	32	0	
11	0	0	0	0	0	504	508	510	32	0	
12	0	0	0	0	0	503	508	510	31	0	
13	0	0	0	0	0	504	509	510	31	0	
14	0	0	0	0	0	503	512	508	31	0	
15	0	0	0	0	0	503	513	507	31	0	
0	0	0	0	0	0	504	513	508	31	0	
1	0	0	0	0	0	504	507	511	32	0	
2	0	0	0	0	0	502	508	509	32	0	
3	0	0	0	0	0	502	511	511	31	0	
4	0	0	0	0	0	502	514	513	31	0	
5	0	0	0	0	0	501	512	510	31	0	
6	0	0	0	0	0	505	513	508	31	0	
7	0	0	0	0	0	505	513	509	31	0	
8	0	0	0	0	1	505	513	508	31	0	
9	0	0	0	0	0	508	515	510	31	0	
10	0	0	0	0	0	503	515	511	31	0	
11	0	0	0	0	0	507	515	512	31	0	
12	0	0	0	0	0	506	510	510	32	0	
13	0	0	0	0	0	506	509	510	32	0	
14	0	0	0	0	0	506	505	511	32	0	
15	0	0	0	0	0	507	507	508	32	0	
0	0	0	0	0	1	505	511	510	31	0	
1	0	0	0	0	0	503	514	511	31	0	
2	0	0	0	0	0	506	513	511	31	0	
3	0	0	0	0	0	507	512	512	31	0	
4	0	0	0	0	0	505	510	514	31	0	
5	0	0	0	0	0	505	513	512	32	0	
6	0	0	0	0	0	506	516	509	31	0	
7	0	0	0	0	0	506	514	507	31	0	
8	0	0	0	0	1	505	513	507	32	0	
9	0	0	0	0	0	505	513	508	31	0	
10	0	0	0	0	0	507	513	507	31	0	
11	0	0	0	0	0	508	514	507	31	0	
12	0	0	0	0	0	505	516	510	31	0	
13	0	0	0	0	0	504	516	508	31	0	
14	0	0	0	0	0	505	512	504	31	0	
15	0	0	0	0	0	506	511	504	31	0	
0	0	0	0	0	1	504	509	504	31	0	
1	0	0	0	0	0	506	506	506	31	0	
2	0	0	0	0	0	503	511	507	31	0	
3	0	0	0	0	0	505	512	508	32	0	
4	0	0	0	0	0	506	507	509	32	0	
5	0	0	0	0	0	506	507	508	31	0	
6	0	0	0	0	0	504	512	508	31	0	
7	0	0	0	0	0	504	513	507	31	0	
8	0	0	0	0	1	504	514	511	31	0	
9	0	0	0	0	0	500	513	511	31	0	
10	0	0	0	0	0	500	515	512	31	0	
11	0	0	0	0	0	502	511	511	31	0	
12	0	0	0	0	0	504	512	511	31	0	
13	0	0	0	0	0	507	512	508	31	0	
14	0	0	0	0	0	511	512	508	31	0	
15	0	0	0	0	0	511	512	510	31	0	
0	0	0	0	0	1	508	513	507	31	0	
1	0	0	0	0	0	505	515	508	31	0	
2	0	0	0	0	0	500	515	512	31	0	
3	0	0	0	0	0	500	518	515	31	0	
4	0	0	0	0	0	501	517	511	31	0	
5	0	0	0	0	0	505	514	509	31	0	
6	0	0	0	0	0	508	508	510	31	0	
7	0	0	0	0	0	507	510	509	31	0	
8	0	0	0	0	1	508	508	508	31	0	
9	0	0	0	0	0	506	508	507	31	0	
10	0	0	0	0	0	507	508	510	32	0	
11	0	0	0	0	0	504	513	511	32	0	
12	0	0	0	0	0	504	513	511	32	0	
13	0	0	0	0	0	504	513	509	32	0	
14	0	0	0	0	0	503	511	509	32	0	
15	0	0	0	0	0	504	510	510	31	0	
0	0	0	0	0	1	503	509	510	31	0	
1	0	0	0	0	0	505	510	510	31	0	
2	0	0	0	0	0	507	511	511	31	0	
3	0	0	0	0	0	504	515	510	31	0	
4	0	0	0	0	0	506	519	512	31	0	
5	0	0	0	0	0	506	516	512	31	0	
6	0	0	0	0	0	504	508	512	32	0	
7	0	0	0	0	0	504	510	511	31	0	
8	0	0	0	0	1	505	515	510	31	0	
9	0	0	0	0	0	507	512	508	31	0	
10	0	0	0	0	0	505	510	507	31	0	
11	0	0	0	0	0	506	508	509	31	0	
12	0	0	0	0	0	503	510	512	31	0	
13	0	0	0	0	0	503	511	509	31	0	
14	0	0	0	0	0	504	509	510	31	0	
15	0	0	0	0	0	503	509	511	32	0	
0	0	0	0	0	1	507	510	510	31	0	
1	0	0	0	0	0	505	515	510	32	0	
2	0	0	0	0	0	508	514	508	31	0	
3	0	0	0	0	0	507	515	510	31	0	
4	0	0	0	0	0	505	515	508	31	0	
5	0	0	0	0	0	503	516	507	31	0	
6	0	0	0	0	0	504	513	510	31	0	
7	0	0	0	0	0	504	514	511	31	0	
8	0	0	0	0	1	507	512	510	31	0	
9	0	0	0	0	0	506	513	509	31	0	
10	0	0	0	0	0	508	512	511	31	0	
11	0	0	0	0	0	511	512	509	32	0	
12	0	0	0	0	0	509	511	509	31	0	
13	0	0	0	0	0	504	508	510	31	0	
14	0	0	0	0	0	504	507	509	31	0	
15	0	0	0	0	0	504	510	508	32	0	
0	0	0	0	0	1	502	511	507	31	0	
1	0	0	0	0	0	503	511	507	31	0	
2	0	0	0	0	0	505	511	509	31	0	
3	0	0	0	0	0	506	509	510	31	0	
4	0	0	0	0	0	507	507	510	31	0	
5	0	0	0	0	0	506	511	508	31	0	
6	0	0	0	0	0	504	514	508	31	0	
7	0	0	0	0	0	502	513	510	31	0	
8	0	0	0	0	1	503	515	508	31	0	
9	0	0	0	0	0	499	515	512	31	0	
10	0	0	0	0	0	500	517	511	31	0	
11	0	0	0	0	0	507	516	508	31	0	
12	0	0	0	0	0	506	512	507	31	0	
13	0	0	0	0	0	509	515	506	31	0	
14	0	0	0	0	0	507	512	508	31	0	
15	0	0	0	0	0	504	509	511	31	0	
0	0	0	0	0	1	502	510	509	31	0	
1	0	0	0	0	0	503	510	508	31	0	
2	0	0	0	0	0	506	510	509	31	0	
3	0	0	0	0	0	504	507	512	32	0	
4	0	0	0	0	0	505	512	511	31	0	
5	0	0	0	0	0	506	513	510	31	0	
6	0	0	0	0	0	506	516	508	31	0	
7	0	0	0	0	0	507	515	511	31	0	
8	0	0	0	0	1	506	510	510	31	0	
9	0	0	0	0	0	507	510	507	31	0	
10	0	0	0	0	0	506	512	506	31	0	
11	0	0	0	0	0	505	512	508	31	0	
12	0	0	0	0	0	504	513	510	31	0	
13	0	0	0	0	0	503	510	509	32	0	
14	0	0	0	0	0	503	511	510	31	0	
15	0	0	0	0	0	502	514	511	31	0	
0	0	0	0	0	1	505	515	512	31	0	
1	0	0	0	0	0	506	513	510	31	0	
2	0	0	0	0	0	505	513	509	31	0	
3	0	0	0	0	0	507	515	506	31	0	
4	0	0	0	0	0	505	514	507	31	0	
5	0	0	0	0	0	504	511	508	31	0	
6	0	0	0	0	0	504	510	510	31	0	
7	0	0	0	0	0	505	510	511	31	0	
8	0	0	0	0	1	505	513	511	31	0	
9	0	0	0	0	0	505	510	510	32	0	
10	0	0	0	0	0	505	514	510	32	0	
11	0	0	0	0	0	504	513	509	32	0	
12	0	0	0	0	0	505	511	510	31	0	
13	0	0	0	0	0	508	512	507	31	0	
14	0	0	0	0	0	507	511	508	31	0	
15	0	0	0	0	0	508	512	506	31	0	
0	0	0	0	0	1	505	510	508	31	0	
1	0	0	0	0	0	507	513	512	31	0	
2	0	0	0	0	0	504	515	511	31	0	
3	0	0	0	0	0	505	510	507	31	0	
4	0	0	0	0	0	502	509	507	31	0	
5	0	0	0	0	0	500	510	510	32	0	
6	0	0	0	0	0	503	513	513	32	0	
7	0	0	0	0	0	504	515	512	31	0	
8	0	0	0	0	1	507	513	510	31	0	
9	0	0	0	0	0	506	513	510	31	0	
10	0	0	0	0	0	505	512	511	31	0	
11	0	0	0	0	0	507	513	510	31	0	
12	0	0	0	0	0	507	515	509	31	0	
13	0	0	0	0	0	508	515	511	31	0	
14	0	0	0	0	0	505	514	508	31	0	
15	0	0	0	0	0	506	512	507	31	0	
0	0	0	0	0	1	504	512	504	31	0	
1	0	0	0	0	0	502	511	508	31	0	
2	0	0	0	0	0	503	510	508	31	0	
3	0	0	0	0	0	503	506	511	31	0	
4	0	0	0	0	0	507	504	509	32	0	
5	0	0	0	0	0	509	505	507	31	0	
6	0	0	0	0	0	508	507	507	31	0	
7	0	0	0	0	0	508	511	509	31	0	
8	0	0	0	0	1	507	514	508	31	0	
9	0	0	0	0	0	505	519	512	31	0	
10	0	0	0	0	0	503	524	513	31	0	
11	0	0	0	0	0	505	518	509	31	0	
12	0	0	0	0	0	504	512	511	31	0	
13	0	0	0	0	0	503	510	509	31	0	
14	0	0	0	0	0	501	509	508	31	0	
15	0	0	0	0	0	503	509	508	31	0	
0	0	0	0	0	1	504	506	509	31	0	
1	0	0	0	0	0	504	502	510	31	0	
2	0	0	0	0	0	501	502	512	31	0	
3	0	0	0	0	0	497	505	514	32	0	
4	0	0	0	0	0	502	513	514	32	0	
5	0	0	0	0	0	502	522	511	31	0	
6	0	0	0	0	0	512	529	507	31	0	
7	0	0	0	0	0	514	527	504	31	0	
8	0	0	0	0	1	512	521	502	31	0	
9	0	0	0	0	0	509	511	506	31	0	
10	0	0	0	0	0	505	508	510	31	0	
11	0	0	0	0	0	504	507	512	31	0	
12	0	0	0	0	0	505	508	510	31	0	
13	0	0	0	0	0	505	514	511	31	0	
14	0	0	0	0	0	507	513	511	31	0	
15	0	0	0	0	0	507	511	509	31	0	
0	0	0	0	0	1	504	510	509	31	0	
1	0	0	0	0	0	502	507	508	31	0	
2	0	0	0	0	0	502	505	512	31	0	
3	0	0	0	0	0	504	504	511	31	0	
4	0	0	0	0	0	508	508	506	31	0	
5	0	0	0	0	0	510	508	508	31	0	
6	0	0	0	0	0	512	512	509	31	0	
7	0	0	0	0	0	505	515	510	31	0	
8	0	0	0	0	1	503	518	511	31	0	
9	0	0	0	0	0	503	520	511	31	0	
10	0	0	0	0	0	499	509	511	31	0	
11	0	0	0	0	0	499	506	513	32	0	
12	0	0	0	0	0	497	509	513	32	0	
13	0	0	0	0	0	498	512	514	32	0	
14	0	0	0	0	0	502	515	509	31	0	
15	0	0	0	0	0	505	517	508	31	0	
0	0	0	0	0	0	505	515	507	31	0	
1	0	0	0	0	0	508	518	505	31	0	
2	0	0	0	0	0	508	516	507	31	0	
3	0	0	0	0	0	509	507	505	31	0	
4	0	0	0	0	0	507	504	507	31	0	
5	0	0	0	0	0	505	510	508	31	0	
6	0	0	0	0	0	504	510	511	31	0	
7	0	0	0	0	0	506	509	510	31	0	
8	0	0	0	0	0	507	508	510	32	0	
9	0	0	0	0	0	511	511	508	31	0	
10	0	0	0	0	0	512	508	511	31	0	
11	0	0	0	0	0	509	508	509	31	0	
12	0	0	0	0	0	509	512	512	31	0	
13	0	0	0	0	0	504	529	512	31	0	
14	0	0	0	0	0	502	533	510	31	0	
15	0	0	0	0	0	500	521	507	31	0	
0	0	0	0	0	1	502	513	507	31	0	
1	0	0	0	0	0	501	508	505	31	0	
2	0	0	0	0	0	502	505	507	31	0	
3	0	0	0	0	0	506	507	508	31	0	
4	0	0	0	0	0	507	505	508	31	0	
5	0	0	0	0	0	511	509	506	31	0	
6	0	0	0	0	0	507	510	511	31	0	
7	0	0	0	0	0	505	509	513	31	0	
8	0	0	0	0	1	505	506	510	31	0	
9	0	0	0	0	0	504	507	511	31	0	
10	0	0	0	0	0	503	508	510	31	0	
11	0	0	0	0	0	507	513	510	31	0	
12	0	0	0	0	0	505	511	509	31	0	
13	0	0	0	0	0	504	503	509	32	0	
14	0	0	0	0	0	502	497	511	31	0	
15	0	0	0	0	0	500	494	511	31	0	
0	0	0	0	0	1	502	507	511	31	0	
1	0	0	0	0	0	503	526	511	31	0	
2	0	0	0	0	0	500	548	510	31	0	
3	0	0	0	0	0	505	547	508	31	0	
4	0	0	0	0	0	507	534	505	31	0	
5	0	0	0	0	0	504	518	508	31	0	
6	0	0	0	0	0	507	508	511	31	0	
7	0	0	0	0	0	507	502	506	31	0	
8	0	0	0	0	1	508	502	508	31	0	
9	0	0	0	0	0	510	503	506	31	0	
10	0	0	0	0	0	504	512	508	31	0	
11	0	0	0	0	0	505	514	508	31	0	
12	0	0	0	0	0	505	507	511	31	0	
13	0	0	0	0	0	504	501	510	32	0	
14	0	0	0	0	0	506	504	511	31	0	
15	0	0	0	0	0	508	507	510	31	0	
0	0	0	0	0	1	508	513	508	31	0	
1	0	0	0	0	0	504	516	509	31	0	
2	0	0	0	0	0	501	515	510	31	0	
3	0	0	0	0	0	502	508	509	31	0	
4	0	0	0	0	0	502	508	507	32	0	
5	0	0	0	0	0	504	507	510	31	0	
6	0	0	0	0	0	504	510	511	31	0	
7	0	0	0	0	0	511	515	509	31	0	
8	0	0	0	0	1	513	521	507	31	0	
9	0	0	0	0	0	512	520	508	31	0	
10	0	0	0	0	0	510	515	510	31	0	
11	0	0	0	0	0	508	514	510	31	0	
12	0	0	0	0	0	504	508	512	31	0	
13	0	0	0	0	0	504	513	511	31	0	
14	0	0	0	0	0	502	513	510	31	0	
15	0	0	0	0	0	503	514	511	31	0	
0	0	0	0	0	1	503	513	511	31	0	
1	0	0	0	0	0	501	508	512	31	0	
2	0	0	0	0	0	497	505	512	32	0	
3	0	0	0	0	0	496	506	511	32	0	
4	0	0	0	0	0	498	516	508	31	0	
5	0	0	0	0	0	503	516	510	31	0	
6	0	0	0	0	0	509	514	507	31	0	
7	0	0	0	0	0	508	508	504	31	0	
8	0	0	0	0	1	508	502	504	31	0	
9	0	0	0	0	0	512	497	507	31	0	
10	0	0	0	0	0	508	504	509	32	0	
11	0	0	0	0	0	507	522	509	31	0	
12	0	0	0	0	0	505	532	511	31	0	
13	0	0	0	0	0	507	536	509	31	0	
14	0	0	0	0	0	511	529	508	31	0	
15	0	0	0	0	0	509	514	509	31	0	
0	0	0	0	0	1	505	504	511	31	0	
1	0	0	0	0	0	503	502	510	31	0	
2	0	0	0	0	0	504	500	505	31	0	
3	0	0	0	0	0	503	504	507	31	0	
4	0	0	0	0	0	503	507	511	31	0	
5	0	0	0	0	0	500	504	508	31	0	
6	0	0	0	0	0	503	504	508	32	0	
7	0	0	0	0	0	503	505	509	32	0	
8	0	0	0	0	1	504	508	510	31	0	
9	0	0	0	0	0	500	515	512	31	0	
10	0	0	0	0	0	502	519	511	31	0	
11	0	0	0	0	0	503	519	509	31	0	
12	0	0	0	0	0	508	516	511	31	0	
13	0	0	0	0	0	508	519	509	31	0	
14	0	0	0	0	0	512	525	510	31	0	
15	0	0	0	0	0	514	529	507	31	0	
0	0	0	0	0	1	517	522	507	31	0	
1	0	0	0	0	0	515	514	508	31	0	
2	0	0	0	0	0	510	505	510	31	0	
3	0	0	0	0	0	506	504	511	31	0	
4	0	0	0	0	0	501	505	512	32	0	
5	0	0	0	0	0	501	507	509	31	0	
6	0	0	0	0	0	500	506	509	31	0	
7	0	0	0	0	0	499	502	511	31	0	
8	0	0	0	0	1	500	504	509	31	0	
9	0	0	0	0	0	502	504	510	31	0	
10	0	0	0	0	0	503	505	508	31	0	
11	0	0	0	0	0	505	519	506	31	0	
12	0	0	0	0	0	505	524	508	31	0	
13	0	0	0	0	0	503	522	509	31	0	
14	0	0	0	0	0	502	512	512	32	0	
15	0	0	0	0	0	499	501	512	32	0	
0	0	0	0	0	1	502	495	513	32	0	
1	0	0	0	0	0	506	502	509	31	0	
2	0	0	0	0	0	510	514	508	31	0	
3	0	0	0	0	0	507	527	506	31	0	
4	0	0	0	0	0	507	536	507	31	0	
5	0	0	0	0	0	508	522	508	31	0	
6	0	0	0	0	0	509	516	509	31	0	
7	0	0	0	0	0	505	512	508	31	0	
8	0	0	0	0	1	507	515	507	31	0	
9	0	0	0	0	0	507	512	504	31	0	
10	0	0	0	0	0	505	506	507	31	0	
11	0	0	0	0	0	507	506	509	31	0	
12	0	0	0	0	0	507	505	507	31	0	
13	0	0	0	0	0	505	504	510	32	0	
14	0	0	0	0	0	504	516	511	31	0	
15	0	0	0	0	0	508	520	510	31	0	
0	0	0	0	0	1	508	516	505	31	0	
1	0	0	0	0	0	510	512	505	31	0	
2	0	0	0	0	0	505	517	510	31	0	
3	0	0	0	0	0	502	515	515	31	0	
4	0	0	0	0	0	504	507	515	32	0	
5	0	0	0	0	0	505	507	513	31	0	
6	0	0	0	0	0	505	506	509	31	0	
7	0	0	0	0	0	503	510	508	32	0	
8	0	0	0	0	1	503	515	510	31	0	
9	0	0	0	0	0	499	514	512	32	0	
10	0	0	0	0	0	499	511	510	31	0	
11	0	0	0	0	0	502	510	510	31	0	
12	0	0	0	0	0	502	512	510	31	0	
13	0	0	0	0	0	503	511	510	31	0	
14	0	0	0	0	0	505	510	509	32	0	
15	0	0	0	0	0	506	511	509	31	0	
0	0	0	0	0	1	511	514	507	31	0	
1	0	0	0	0	0	511	508	508	31	0	
2	0	0	0	0	0	510	506	509	31	0	
3	0	0	0	0	0	508	510	508	31	0	
4	0	0	0	0	0	506	508	508	31	0	
5	0	0	0	0	0	504	507	507	31	0	
6	0	0	0	0	0	506	520	508	31	0	
7	0	0	0	0	0	503	523	511	31	0	
8	0	0	0	0	1	504	525	509	31	0	
9	0	0	0	0	0	505	519	509	31	0	
10	0	0	0	0	0	504	518	511	31	0	
11	0	0	0	0	0	506	509	509	32	0	
12	0	0	0	0	0	504	505	510	31	0	
13	0	0	0	0	0	504	510	508	31	0	
14	0	0	0	0	0	505	507	509	31	0	
15	0	0	0	0	0	502	510	508	31	0	
0	0	0	0	0	1	502	512	511	31	0	
1	0	0	0	0	0	501	510	510	31	0	
2	0	0	0	0	0	504	510	508	31	0	
3	0	0	0	0	0	508	508	510	31	0	
4	0	0	0	0	0	510	510	507	31	0	
5	0	0	0	0	0	509	515	508	31	0	
6	0	0	0	0	0	508	515	507	31	0	
7	0	0	0	0	0	505	518	509	31	0	
8	0	0	0	0	1	504	516	510	31	0	
9	0	0	0	0	0	505	514	509	31	0	
10	0	0	0	0	0	509	508	509	32	0	
11	0	0	0	0	0	508	504	508	32	0	
12	0	0	0	0	0	509	501	508	31	0	
13	0	0	0	0	0	508	503	510	31	0	
14	0	0	0	0	0	507	511	511	31	0	
15	0	0	0	0	0	505	533	508	31	0	
0	0	0	0	0	1	503	532	513	31	0	
1	0	0	0	0	0	502	522	511	31	0	
2	0	0	0	0	0	503	515	510	31	0	
3	0	0	0	0	0	505	511	508	31	0	
4	0	0	0	0	0	504	503	510	31	0	
5	0	0	0	0	0	501	503	510	31	0	
6	0	0	0	0	0	499	507	510	31	0	
7	0	0	0	0	0	501	508	508	31	0	
8	0	0	0	0	1	504	507	511	31	0	
9	0	0	0	0	0	506	508	510	31	0	
10	0	0	0	0	0	508	505	509	31	0	
11	0	0	0	0	0	511	510	507	31	0	
12	0	0	0	0	0	512	515	506	31	0	
13	0	0	0	0	0	506	517	507	31	0	
14	0	0	0	0	0	507	514	510	31	0	
15	0	0	0	0	0	503	514	509	31	0	
0	0	0	0	0	1	500	514	508	31	0	
1	0	0	0	0	0	500	513	511	31	0	
2	0	0	0	0	0	503	512	512	31	0	
3	0	0	0	0	0	504	507	514	31	0	
4	0	0	0	0	0	503	506	512	32	0	
5	0	0	0	0	0	500	519	510	31	0	
6	0	0	0	0	0	502	519	508	31	0	
7	0	0	0	0	0	503	513	508	31	0	
8	0	0	0	0	1	505	512	507	31	0	
9	0	0	0	0	0	508	511	508	31	0	
10	0	0	0	0	0	510	509	508	31	0	
11	0	0	0	0	0	510	517	508	31	0	
12	0	0	0	0	0	512	521	506	31	0	
13	0	0	0	0	0	509	516	508	31	0	
14	0	0	0	0	0	506	510	507	32	0	
15	0	0	0	0	0	507	511	509	31	0	
0	0	0	0	0	1	506	509	509	31	0	
1	0	0	0	0	0	502	508	511	31	0	
2	0	0	0	0	0	503	517	509	31	0	
3	0	0	0	0	0	500	517	511	31	0	
4	0	0	0	0	0	502	503	510	31	0	
5	0	0	0	0	0	503	511	512	31	0	
6	0	0	0	0	0	507	509	510	31	0	
7	0	0	0	0	0	503	508	512	31	0	
8	0	0	0	0	0	500	514	510	31	0	
9	0	0	0	0	0	499	518	513	32	0	
10	0	0	0	0	0	502	519	511	31	0	
11	0	0	0	0	0	505	516	506	31	0	
12	0	0	0	0	0	511	513	507	31	0	
13	0	0	0	0	0	510	512	506	31	0	
14	0	0	0	0	0	509	507	508	31	0	
15	0	0	0	0	0	507	508	508	31	0	
0	0	0	0	0	0	508	505	508	31	0	
1	0	0	0	0	0	508	510	509	31	0	
2	0	0	0	0	0	508	507	508	32	0	
3	0	0	0	0	0	508	504	511	31	0	
4	0	0	0	0	0	505	511	510	31	0	
5	0	0	0	0	0	505	514	511	31	0	
6	0	0	0	0	0	506	519	510	31	0	
7	0	0	0	0	0	504	522	508	31	0	
8	0	0	0	0	1	501	520	508	31	0	
9	0	0	0	0	0	500	515	511	31	0	
10	0	0	0	0	0	503	511	507	31	0	
11	0	0	0	0	0	506	511	507	31	0	
12	0	0	0	0	0	507	513	505	31	0	
13	0	0	0	0	0	505	516	507	31	0	
14	0	0	0	0	0	504	509	510	31	0	
15	0	0	0	0	0	502	508	510	31	0	
0	0	0	0	0	1	501	504	511	31	0	
1	0	0	0	0	0	504	506	509	31	0	
2	0	0	0	0	0	508	509	506	31	0	
3	0	0	0	0	0	510	512	508	31	0	
4	0	0	0	0	0	509	515	510	31	0	
5	0	0	0	0	0	507	515	513	31	0	
6	0	0	0	0	0	502	511	514	31	0	
7	0	0	0	0	0	497	503	512	32	0	
8	0	0	0	0	1	499	498	513	31	0	
9	0	0	0	0	0	500	497	514	31	0	
10	0	0	0	0	0	504	506	512	31	0	
11	0	0	0	0	0	509	519	508	31	0	
12	0	0	0	0	0	508	539	510	31	0	
13	0	0	0	0	0	510	542	507	31	0	
14	0	0	0	0	0	507	531	504	31	0	
15	0	0	0	0	0	508	512	507	31	0	
0	0	0	0	0	1	507	503	505	31	0	
1	0	0	0	0	0	506	504	507	31	0	
2	0	0	0	0	0	510	513	505	31	0	
3	0	0	0	0	0	510	511	507	31	0	
4	0	0	0	0	0	506	511	510	31	0	
5	0	0	0	0	0	503	506	511	32	0	
6	0	0	0	0	0	500	504	512	32	0	
7	0	0	0	0	0	501	505	513	32	0	
8	0	0	0	0	1	500	502	512	32	0	
9	0	0	0	0	0	499	511	511	31	0	
10	0	0	0	0	0	504	514	506	31	0	
11	0	0	0	0	0	502	516	506	31	0	
12	0	0	0	0	0	505	513	505	31	0	
13	0	0	0	0	0	502	508	507	31	0	
14	0	0	0	0	0	504	507	507	31	0	
15	0	0	0	0	0	508	511	506	31	0	
0	0	0	0	0	1	512	521	508	31	0	
1	0	0	0	0	0	510	524	511	31	0	
2	0	0	0	0	0	507	521	512	31	0	
3	0	0	0	0	0	506	515	510	31	0	
4	0	0	0	0	0	505	509	509	31	0	
5	0	0	0	0	0	505	508	509	31	0	
6	0	0	0	0	0	505	516	511	31	0	
7	0	0	0	0	0	503	518	510	31	0	
8	0	0	0	0	1	503	509	510	31	0	
9	0	0	0	0	0	504	509	510	31	0	
10	0	0	0	0	0	504	510	511	31	0	
11	0	0	0	0	0	508	512	509	31	0	
12	0	0	0	0	0	511	513	508	31	0	
13	0	0	0	0	0	511	516	508	31	0	
14	0	0	0	0	0	508	510	506	31	0	
15	0	0	0	0	0	502	508	508	31	0	
0	0	0	0	0	1	500	503	512	32	0	
1	0	0	0	0	0	499	504	510	32	0	
2	0	0	0	0	0	497	504	513	32	0	
3	0	0	0	0	0	497	503	510	32	0	
4	0	0	0	0	0	503	507	508	31	0	
5	0	0	0	0	0	502	510	510	32	0	
6	0	0	0	0	0	504	513	512	32	0	
7	0	0	0	0	0	508	519	510	31	0	
8	0	0	0	0	1	510	522	508	31	0	
9	0	0	0	0	0	511	517	508	31	0	
10	0	0	0	0	0	511	517	507	31	0	
11	0	0	0	0	0	511	522	508	31	0	
12	0	0	0	0	0	512	518	507	31	0	
13	0	0	0	0	0	509	512	507	31	0	
14	0	0	0	0	0	504	518	508	31	0	
15	0	0	0	0	0	502	521	508	32	0	
0	0	0	0	0	1	504	516	508	31	0	
1	0	0	0	0	0	506	509	507	31	0	
2	0	0	0	0	0	504	502	510	31	0	
3	0	0	0	0	0	502	502	510	31	0	
4	0	0	0	0	0	502	499	510	31	0	
5	0	0	0	0	0	503	507	509	31	0	
6	0	0	0	0	0	501	513	511	31	0	
7	0	0	0	0	0	502	519	511	32	0	
8	0	0	0	0	1	501	513	513	32	0	
9	0	0	0	0	0	501	507	514	31	0	
10	0	0	0	0	0	503	510	513	32	0	
11	0	0	0	0	0	507	509	512	31	0	
12	0	0	0	0	0	506	512	507	31	0	
13	0	0	0	0	0	508	524	509	31	0	
14	0	0	0	0	0	510	519	508	31	0	
15	0	0	0	0	0	510	515	504	31	0	
0	0	0	0	0	1	507	511	506	31	0	
1	0	0	0	0	0	503	511	508	31	0	
2	0	0	0	0	0	504	513	508	31	0	
3	0	0	0	0	0	504	511	508	31	0	
4	0	0	0	0	0	507	507	506	31	0	
5	0	0	0	0	0	507	504	508	31	0	
6	0	0	0	0	0	507	501	510	32	0	
7	0	0	0	0	0	513	507	509	31	0	
8	0	0	0	0	1	510	513	510	31	0	
9	0	0	0	0	0	508	519	513	31	0	
10	0	0	0	0	0	502	530	511	31	0	
11	0	0	0	0	0	501	533	509	31	0	
12	0	0	0	0	0	504	522	508	31	0	
13	0	0	0	0	0	503	511	507	31	0	
14	0	0	0	0	0	501	506	510	31	0	
15	0	0	0	0	0	499	503	510	32	0	
0	0	0	0	0	1	498	500	511	32	0	
1	0	0	0	0	0	501	502	511	32	0	
2	0	0	0	0	0	500	505	509	31	0	
3	0	0	0	0	0	507	507	508	31	0	
4	0	0	0	0	0	508	509	508	31	0	
5	0	0	0	0	0	504	511	509	31	0	
6	0	0	0	0	0	505	516	511	31	0	
7	0	0	0	0	0	507	524	510	31	0	
8	0	0	0	0	1	507	513	510	31	0	
9	0	0	0	0	0	509	511	511	31	0	
10	0	0	0	0	0	508	509	507	31	0	
11	0	0	0	0	0	508	514	507	31	0	
12	0	0	0	0	0	508	521	506	31	0	
13	0	0	0	0	0	504	517	507	31	0	
14	0	0	0	0	0	503	511	510	31	0	
15	0	0	0	0	0	504	512	507	31	0	
0	0	0	0	0	1	506	512	506	31	0	
1	0	0	0	0	0	507	504	509	31	0	
2	0	0	0	0	0	508	502	512	32	0	
3	0	0	0	0	0	503	507	512	32	0	
4	0	0	0	0	0	504	507	511	32	0	
5	0	0	0	0	0	507	517	509	32	0	
6	0	0	0	0	0	506	512	509	31	0	
7	0	0	0	0	0	502	517	510	31	0	
8	0	0	0	0	1	502	515	509	31	0	
9	0	0	0	0	0	504	518	510	31	0	
10	0	0	0	0	0	502	524	508	31	0	
11	0	0	0	0	0	504	525	510	31	0	
12	0	0	0	0	0	504	518	511	31	0	
13	0	0	0	0	0	508	508	508	31	0	
14	0	0	0	0	0	505	508	509	31	0	
15	0	0	0	0	0	507	511	507	31	0	
0	0	0	0	0	1	504	512	510	31	0	
1	0	0	0	0	0	503	513	510	31	0	
2	0	0	0	0	0	504	505	511	31	0	
3	0	0	0	0	0	507	504	513	31	0	
4	0	0	0	0	0	511	506	511	31	0	
5	0	0	0	0	0	508	506	506	31	0	
6	0	0	0	0	0	507	506	509	32	0	
7	0	0	0	0	0	507	507	510	32	0	
8	0	0	0	0	1	507	504	508	31	0	
9	0	0	0	0	0	504	511	508	31	0	
10	0	0	0	0	0	503	516	510	31	0	
11	0	0	0	0	0	501	525	510	31	0	
12	0	0	0	0	0	502	525	511	31	0	
13	0	0	0	0	0	507	521	508	31	0	
14	0	0	0	0	0	514	510	508	31	0	
15	0	0	0	0	0	514	498	509	31	0	
0	0	0	0	0	1	508	502	508	31	0	
1	0	0	0	0	0	501	515	508	31	0	
2	0	0	0	0	0	498	515	509	31	0	
3	0	0	0	0	0	497	513	510	31	0	
4	0	0	0	0	0	504	515	510	31	0	
5	0	0	0	0	0	507	514	508	31	0	
6	0	0	0	0	0	510	510	508	31	0	
7	0	0	0	0	0	505	513	506	31	0	
8	0	0	0	0	1	501	512	512	31	0	
9	0	0	0	0	0	502	510	512	32	0	
10	0	0	0	0	0	504	504	509	32	0	
11	0	0	0	0	0	502	501	512	32	0	
12	0	0	0	0	0	496	503	512	31	0	
13	0	0	0	0	0	498	504	513	32	0	
14	0	0	0	0	0	499	509	511	31	0	
15	0	0	0	0	0	509	522	507	31	0	
0	0	0	0	0	1	515	532	506	31	0	
1	0	0	0	0	0	513	536	507	31	0	
2	0	0	0	0	0	509	527	507	31	0	
3	0	0	0	0	0	505	516	506	31	0	
4	0	0	0	0	0	505	508	504	31	0	
5	0	0	0	0	0	503	504	506	31	0	
6	0	0	0	0	0	500	494	509	31	0	
7	0	0	0	0	0	498	486	511	32	0	
8	0	0	0	0	1	496	489	515	32	0	
9	0	0	0	0	0	502	497	514	32	0	
10	0	0	0	0	0	509	520	510	32	0	
11	0	0	0	0	0	516	543	510	31	0	
12	0	0	0	0	0	522	553	508	31	0	
13	0	0	0	0	0	519	540	507	31	0	
14	0	0	0	0	0	510	511	510	31	0	
15	0	0	0	0	0	507	501	510	31	0	
0	0	0	0	0	1	504	496	508	31	0	
1	0	0	0	0	0	504	499	507	31	0	
2	0	0	0	0	0	506	498	509	31	0	
3	0	0	0	0	0	504	499	508	31	0	
4	0	0	0	0	0	504	508	510	31	0	
5	0	0	0	0	0	501	518	509	31	0	
6	0	0	0	0	0	499	524	510	31	0	
7	0	0	0	0	0	497	524	510	32	0	
8	0	0	0	0	1	496	520	508	31	0	
9	0	0	0	0	0	499	513	510	31	0	
10	0	0	0	0	0	500	507	511	31	0	
11	0	0	0	0	0	505	504	508	31	0	
12	0	0	0	0	0	505	504	506	31	0	
13	0	0	0	0	0	508	510	507	31	0	
14	0	0	0	0	0	505	505	511	32	0	
15	0	0	0	0	0	507	495	513	31	0	
0	0	0	0	0	1	507	499	512	32	0	
1	0	0	0	0	0	505	503	510	32	0	
2	0	0	0	0	0	502	515	513	31	0	
3	0	0	0	0	0	502	527	510	31	0	
4	0	0	0	0	0	505	525	507	31	0	
5	0	0	0	0	0	510	515	506	31	0	
6	0	0	0	0	0	510	513	509	31	0	
7	0	0	0	0	0	509	508	505	31	0	
8	0	0	0	0	0	508	515	507	31	0	
9	0	0	0	0	0	506	523	508	31	0	
10	0	0	0	0	0	503	518	509	31	0	
11	0	0	0	0	0	502	508	510	31	0	
12	0	0	0	0	0	504	509	510	31	0	
13	0	0	0	0	0	504	508	512	32	0	
14	0	0	0	0	0	502	511	510	31	0	
15	0	0	0	0	0	501	515	510	31	0	
0	0	0	0	0	0	505	518	508	31	0	
1	0	0	0	0	0	509	521	508	31	0	
2	0	0	0	0	0	507	516	509	31	0	
3	0	0	0	0	0	509	509	510	31	0	
4	0	0	0	0	0	507	507	508	31	0	
5	0	0	0	0	0	505	508	510	31	0	
6	0	0	0	0	0	505	508	510	31	0	
7	0	0	0	0	0	505	506	509	31	0	
8	0	0	0	0	1	500	502	509	31	0	
9	0	0	0	0	0	500	500	511	31	0	
10	0	0	0	0	0	500	504	512	31	0	
11	0	0	0	0	0	495	510	512	32	0	
12	0	0	0	0	0	497	522	513	31	0	
13	0	0	0	0	0	504	527	510	31	0	
14	0	0	0	0	0	510	519	508	31	0	
15	0	0	0	0	0	511	516	507	31	0	
0	0	0	0	0	1	511	515	509	31	0	
1	0	0	0	0	0	510	512	511	32	0	
2	0	0	0	0	0	512	508	510	31	0	
3	0	0	0	0	0	510	508	508	31	0	
4	0	0	0	0	0	507	505	506	31	0	
5	0	0	0	0	0	504	508	507	31	0	
6	0	0	0	0	0	507	508	508	31	0	
7	0	0	0	0	0	509	511	506	31	0	
8	0	0	0	0	1	506	517	507	31	0	
9	0	0	0	0	0	505	521	505	31	0	
10	0	0	0	0	0	503	517	508	31	0	
11	0	0	0	0	0	500	524	510	31	0	
12	0	0	0	0	0	500	524	508	31	0	
13	0	0	0	0	0	499	513	509	31	0	
14	0	0	0	0	0	500	504	514	31	0	
15	0	0	0	0	0	503	503	515	32	0	
0	0	0	0	0	1	513	502	512	32	0	
1	0	0	0	0	0	510	502	509	32	0	
2	0	0	0	0	0	509	512	508	31	0	
3	0	0	0	0	0	504	521	508	31	0	
4	0	0	0	0	0	504	520	512	31	0	
5	0	0	0	0	0	500	513	512	32	0	
6	0	0	0	0	0	502	507	509	32	0	
7	0	0	0	0	0	503	499	507	32	0	
8	0	0	0	0	1	505	501	505	32	0	
9	0	0	0	0	0	508	507	504	31	0	
10	0	0	0	0	0	510	520	502	31	0	
11	0	0	0	0	0	508	528	509	31	0	
12	0	0	0	0	0	508	531	509	31	0	
13	0	0	0	0	0	506	520	506	31	0	
14	0	0	0	0	0	508	505	508	31	0	
15	0	0	0	0	0	503	500	512	31	0	
0	0	0	0	0	1	495	500	516	32	0	
1	0	0	0	0	0	496	506	516	32	0	
2	0	0	0	0	0	499	511	514	32	0	
3	0	0	0	0	0	504	512	509	31	0	
4	0	0	0	0	0	505	515	510	32	0	
5	0	0	0	0	0	500	513	510	31	0	
6	0	0	0	0	0	503	516	511	31	0	
7	0	0	0	0	0	504	521	507	31	0	
8	0	0	0	0	1	512	519	503	31	0	
9	0	0	0	0	0	510	512	505	31	0	
10	0	0	0	0	0	511	508	507	31	0	
11	0	0	0	0	0	504	502	508	31	0	
12	0	0	0	0	0	498	502	510	32	0	
13	0	0	0	0	0	498	505	510	32	0	
14	0	0	0	0	0	502	509	511	31	0	
15	0	0	0	0	0	506	511	511	31	0	
0	0	0	0	0	1	511	513	511	31	0	
1	0	0	0	0	0	513	518	511	31	0	
2	0	0	0	0	0	511	510	509	31	0	
3	0	0	0	0	0	510	509	508	31	0	
4	0	0	0	0	0	508	509	508	31	0	
5	0	0	0	0	0	507	508	508	31	0	
6	0	0	0	0	0	504	514	508	31	0	
7	0	0	0	0	0	503	516	509	31	0	
8	0	0	0	0	1	504	515	509	31	0	
9	0	0	0	0	0	507	521	510	31	0	
10	0	0	0	0	0	503	525	509	31	0	
11	0	0	0	0	0	505	521	508	31	0	
12	0	0	0	0	0	505	518	509	31	0	
13	0	0	0	0	0	505	515	507	31	0	
14	0	0	0	0	0	507	502	508	31	0	
15	0	0	0	0	0	506	503	508	31	0	
0	0	0	0	0	1	504	504	511	32	0	
1	0	0	0	0	0	500	507	512	32	0	
2	0	0	0	0	0	499	508	513	31	0	
3	0	0	0	0	0	502	512	512	31	0	
4	0	0	0	0	0	500	516	513	31	0	
5	0	0	0	0	0	499	515	513	31	0	
6	0	0	0	0	0	502	513	512	31	0	
7	0	0	0	0	0	502	515	509	31	0	
8	0	0	0	0	1	504	514	509	31	0	
9	0	0	0	0	0	504	518	504	31	0	
10	0	0	0	0	0	510	511	502	31	0	
11	0	0	0	0	0	515	507	502	31	0	
12	0	0	0	0	0	512	510	505	31	0	
13	0	0	0	0	0	508	507	506	31	0	
14	0	0	0	0	0	504	507	510	31	0	
15	0	0	0	0	0	504	506	510	32	0	
0	0	0	0	0	1	503	504	510	32	0	
1	0	0	0	0	0	507	510	511	32	0	
2	0	0	0	0	0	505	513	510	31	0	
3	0	0	0	0	0	503	516	515	31	0	
4	0	0	0	0	0	503	521	513	31	0	
5	0	0	0	0	0	502	519	511	31	0	
6	0	0	0	0	0	505	517	511	31	0	
7	0	0	0	0	0	506	513	508	31	0	
8	0	0	0	0	1	507	513	509	31	0	
9	0	0	0	0	0	504	511	510	31	0	
10	0	0	0	0	0	504	508	509	31	0	
11	0	0	0	0	0	503	511	508	31	0	
12	0	0	0	0	0	504	511	509	31	0	
13	0	0	0	0	0	505	513	508	31	0	
14	0	0	0	0	0	506	515	510	31	0	
15	0	0	0	0	0	508	518	512	32	0	
0	0	0	0	0	1	506	516	508	32	0	
1	0	0	0	0	0	504	511	508	31	0	
2	0	0	0	0	0	507	509	508	31	0	
3	0	0	0	0	0	505	508	512	32	0	
4	0	0	0	0	0	506	508	507	31	0	
5	0	0	0	0	0	506	515	509	31	0	
6	0	0	0	0	0	505	515	510	31	0	
7	0	0	0	0	0	505	512	510	31	0	
8	0	0	0	0	1	505	513	508	31	0	
9	0	0	0	0	0	502	510	507	31	0	
10	0	0	0	0	0	503	510	510	31	0	
11	0	0	0	0	0	502	511	510	31	0	
12	0	0	0	0	0	504	513	509	31	0	
13	0	0	0	0	0	507	512	509	31	0	
14	0	0	0	0	0	510	513	510	31	0	
15	0	0	0	0	0	508	514	508	31	0	
0	0	0	0	0	1	509	515	505	31	0	
1	0	0	0	0	0	508	513	508	31	0	
2	0	0	0	0	0	508	513	508	32	0	
3	0	0	0	0	0	508	511	509	31	0	
4	0	0	0	0	0	500	510	513	31	0	
5	0	0	0	0	0	497	510	512	31	0	
6	0	0	0	0	0	502	509	508	31	0	
7	0	0	0	0	0	508	510	507	31	0	
8	0	0	0	0	1	509	510	510	31	0	
9	0	0	0	0	0	505	511	513	31	0	
10	0	0	0	0	0	502	511	511	31	0	
11	0	0	0	0	0	500	509	514	32	0	
12	0	0	0	0	0	500	509	510	32	0	
13	0	0	0	0	0	502	511	509	32	0	
14	0	0	0	0	0	502	506	510	32	0	
15	0	0	0	0	0	504	507	509	31	0	
0	0	0	0	0	1	508	505	507	31	0	
1	0	0	0	0	0	511	512	507	32	0	
2	0	0	0	0	0	509	516	505	31	0	
3	0	0	0	0	0	508	514	510	31	0	
4	0	0	0	0	0	508	518	511	31	0	
5	0	0	0	0	0	508	524	508	31	0	
6	0	0	0	0	0	505	521	507	31	0	
7	0	0	0	0	0	505	515	506	31	0	
8	0	0	0	0	1	502	515	509	31	0	
9	0	0	0	0	0	500	512	510	31	0	
10	0	0	0	0	0	499	509	514	31	0	
11	0	0	0	0	0	499	505	514	31	0	
12	0	0	0	0	0	502	505	510	31	0	
13	0	0	0	0	0	504	507	511	31	0	
14	0	0	0	0	0	504	512	509	31	0	
15	0	0	0	0	0	508	520	510	31	0	
0	0	0	0	0	1	508	515	509	32	0	
1	0	0	0	0	0	511	509	508	31	0	
2	0	0	0	0	0	509	511	505	31	0	
3	0	0	0	0	0	504	518	507	31	0	
4	0	0	0	0	0	506	514	508	31	0	
5	0	0	0	0	0	513	514	506	31	0	
6	0	0	0	0	0	516	513	506	31	0	
7	0	0	0	0	0	514	512	507	31	0	
8	0	0	0	0	1	505	510	510	32	0	
9	0	0	0	0	0	500	511	511	32	0	
10	0	0	0	0	0	498	511	513	32	0	
11	0	0	0	0	0	499	513	512	31	0	
12	0	0	0	0	0	501	512	510	31	0	
13	0	0	0	0	0	502	509	508	31	0	
14	0	0	0	0	0	506	507	508	31	0	
15	0	0	0	0	0	504	510	507	31	0	
0	0	0	0	0	1	505	511	508	31	0	
1	0	0	0	0	0	506	512	508	31	0	
2	0	0	0	0	0	505	515	508	31	0	
3	0	0	0	0	0	507	515	508	31	0	
4	0	0	0	0	0	506	514	511	31	0	
5	0	0	0	0	0	504	513	512	31	0	
6	0	0	0	0	0	504	512	512	31	0	
7	0	0	0	0	0	505	513	512	31	0	
8	0	0	0	0	1	507	513	512	31	0	
9	0	0	0	0	0	503	515	513	31	0	
10	0	0	0	0	0	504	514	511	31	0	
11	0	0	0	0	0	507	515	510	31	0	
12	0	0	0	0	0	508	515	504	31	0	
13	0	0	0	0	0	511	511	504	31	0	
14	0	0	0	0	0	507	511	506	31	0	
15	0	0	0	0	0	505	511	507	31	0	
0	0	0	0	0	1	507	514	507	31	0	
1	0	0	0	0	0	508	513	504	31	0	
2	0	0	0	0	0	504	514	505	31	0	
3	0	0	0	0	0	499	511	507	31	0	
4	0	0	0	0	0	500	510	511	31	0	
5	0	0	0	0	0	506	512	508	31	0	
6	0	0	0	0	0	504	507	508	32	0	
7	0	0	0	0	0	507	509	509	31	0	
8	0	0	0	0	1	510	511	509	31	0	
9	0	0	0	0	0	504	510	509	31	0	
10	0	0	0	0	0	504	512	508	32	0	
11	0	0	0	0	0	504	511	507	31	0	
12	0	0	0	0	0	503	511	509	31	0	
13	0	0	0	0	0	504	511	511	31	0	
14	0	0	0	0	0	506	507	509	31	0	
15	0	0	0	0	0	505	509	509	31	0	
0	0	0	0	0	1	504	512	509	31	0	
1	0	0	0	0	0	504	512	510	31	0	
2	0	0	0	0	0	504	513	511	31	0	
3	0	0	0	0	0	508	511	510	32	0	
4	0	0	0	0	0	507	512	509	31	0	
5	0	0	0	0	0	506	513	510	31	0	
6	0	0	0	0	0	502	516	512	31	0	
7	0	0	0	0	0	502	520	513	31	0	
8	0	0	0	0	0	504	517	515	31	0	
9	0	0	0	0	0	507	513	512	31	0	
10	0	0	0	0	0	509	511	509	31	0	
11	0	0	0	0	0	511	512	508	32	0	
12	0	0	0	0	0	509	513	507	31	0	
13	0	0	0	0	0	508	514	505	31	0	
14	0	0	0	0	0	502	512	507	31	0	
15	0	0	0	0	0	503	508	510	31	0	
0	0	0	0	0	1	503	505	509	31	0	
1	0	0	0	0	0	505	505	508	32	0	
2	0	0	0	0	0	506	510	507	32	0	
3	0	0	0	0	0	506	513	508	31	0	
4	0	0	0	0	0	501	513	511	31	0	
5	0	0	0	0	0	499	510	516	32	0	
6	0	0	0	0	0	503	511	515	31	0	
7	0	0	0	0	0	501	513	515	31	0	
8	0	0	0	0	1	504	515	512	31	0	
9	0	0	0	0	0	507	516	508	31	0	
10	0	0	0	0	0	508	516	507	31	0	
11	0	0	0	0	0	506	513	507	31	0	
12	0	0	0	0	0	505	511	510	31	0	
13	0	0	0	0	0	506	512	510	31	0	
14	0	0	0	0	0	505	511	505	31	0	
15	0	0	0	0	0	511	515	505	31	0	
0	0	0	0	0	1	508	512	508	31	0	
1	0	0	0	0	0	505	514	508	31	0	
2	0	0	0	0	0	503	514	513	31	0	
3	0	0	0	0	0	500	516	512	32	0	
4	0	0	0	0	0	503	512	508	31	0	
5	0	0	0	0	0	505	514	505	31	0	
6	0	0	0	0	0	506	511	506	31	0	
7	0	0	0	0	0	505	511	509	31	0	
8	0	0	0	0	1	504	511	512	31	0	
9	0	0	0	0	0	506	511	511	31	0	
10	0	0	0	0	0	507	513	511	32	0	
11	0	0	0	0	0	507	510	509	32	0	
12	0	0	0	0	0	508	511	511	32	0	
13	0	0	0	0	0	507	514	511	31	0	
14	0	0	0	0	0	507	511	509	31	0	
15	0	0	0	0	0	505	511	508	31	0	
0	0	0	0	0	1	506	511	505	31	0	
1	0	0	0	0	0	504	511	504	31	0	
2	0	0	0	0	0	503	510	509	31	0	
3	0	0	0	0	0	504	511	510	31	0	
4	0	0	0	0	0	505	512	509	31	0	
5	0	0	0	0	0	504	510	508	31	0	
6	0	0	0	0	0	504	512	510	31	0	
7	0	0	0	0	0	499	512	511	31	0	
8	0	0	0	0	1	504	513	511	31	0	
9	0	0	0	0	0	504	511	514	31	0	
10	0	0	0	0	0	501	511	513	32	0	
11	0	0	0	0	0	502	513	514	32	0	
12	0	0	0	0	0	505	514	510	31	0	
13	0	0	0	0	0	507	517	510	31	0	
14	0	0	0	0	0	504	520	508	31	0	
15	0	0	0	0	0	508	517	506	31	0	
0	0	0	0	0	1	510	517	503	31	0	
1	0	0	0	0	0	511	509	502	31	0	
2	0	0	0	0	0	508	502	504	31	0	
3	0	0	0	0	0	507	503	509	32	0	
4	0	0	0	0	0	506	506	509	32	0	
5	0	0	0	0	0	502	508	513	32	0	
6	0	0	0	0	0	501	511	513	32	0	
7	0	0	0	0	0	500	512	512	31	0	
8	0	0	0	0	1	502	511	510	31	0	
9	0	0	0	0	0	504	517	507	31	0	
10	0	0	0	0	0	509	515	508	31	0	
11	0	0	0	0	0	507	513	510	31	0	
12	0	0	0	0	0	505	511	508	31	0	
13	0	0	0	0	0	506	515	510	31	0	
14	0	0	0	0	0	505	515	509	32	0	
15	0	0	0	0	0	504	513	513	32	0	
0	0	0	0	0	1	504	512	512	31	0	
1	0	0	0	0	0	510	513	506	31	0	
2	0	0	0	0	0	508	512	502	31	0	
3	0	0	0	0	0	502	511	508	31	0	
4	0	0	0	0	0	502	508	508	31	0	
5	0	0	0	0	0	501	505	511	32	0	
6	0	0	0	0	0	505	512	509	32	0	
7	0	0	0	0	0	508	514	508	31	0	
8	0	0	0	0	1	508	510	505	31	0	
9	0	0	0	0	0	507	507	504	31	0	
10	0	0	0	0	0	508	511	507	31	0	
11	0	0	0	0	0	503	515	511	31	0	
12	0	0	0	0	0	504	515	512	31	0	
13	0	0	0	0	0	502	516	512	31	0	
14	0	0	0	0	0	503	513	512	31	0	
15	0	0	0	0	0	505	512	510	31	0	
0	0	0	0	0	1	508	511	508	31	0	
1	0	0	0	0	0	507	508	507	31	0	
2	0	0	0	0	0	508	508	505	31	0	
3	0	0	0	0	0	505	510	507	31	0	
4	0	0	0	0	0	504	512	509	31	0	
5	0	0	0	0	0	504	513	512	31	0	
6	0	0	0	0	0	502	512	511	31	0	
7	0	0	0	0	0	500	515	510	31	0	
8	0	0	0	0	1	505	515	508	31	0	
9	0	0	0	0	0	503	510	511	31	0	
10	0	0	0	0	0	504	511	513	31	0	
11	0	0	0	0	0	503	510	511	31	0	
12	0	0	0	0	0	505	510	509	31	0	
13	0	0	0	0	0	504	512	508	31	0	
14	0	0	0	0	0	505	512	510	31	0	
15	0	0	0	0	0	502	510	512	32	0	
0	0	0	0	0	1	504	510	512	31	0	
1	0	0	0	0	0	507	513	508	31	0	
2	0	0	0	0	0	507	516	507	31	0	
3	0	0	0	0	0	506	516	507	31	0	
4	0	0	0	0	0	507	516	508	31	0	
5	0	0	0	0	0	510	518	507	31	0	
6	0	0	0	0	0	510	517	508	31	0	
7	0	0	0	0	0	510	516	510	32	0	
8	0	0	0	0	1	508	510	509	32	0	
9	0	0	0	0	0	503	515	510	31	0	
10	0	0	0	0	0	501	513	512	31	0	
11	0	0	0	0	0	499	512	515	32	0	
12	0	0	0	0	0	502	514	510	31	0	
13	0	0	0	0	0	504	513	509	31	0	
14	0	0	0	0	0	512	506	505	31	0	
15	0	0	0	0	0	518	500	500	32	0	
0	0	0	0	0	1	512	502	502	31	0	
1	0	0	0	0	0	503	511	508	31	0	
2	0	0	0	0	0	494	513	513	31	0	
3	0	0	0	0	0	494	506	515	32	0	
4	0	0	0	0	0	499	504	513	32	0	
5	0	0	0	0	0	500	512	511	31	0	
6	0	0	0	0	0	502	513	511	31	0	
7	0	0	0	0	0	499	515	513	31	0	
8	0	0	0	0	1	502	514	512	31	0	
9	0	0	0	0	0	508	511	512	31	0	
10	0	0	0	0	0	509	514	508	31	0	
11	0	0	0	0	0	506	516	510	31	0	
12	0	0	0	0	0	504	518	510	31	0	
13	0	0	0	0	0	501	516	509	31	0	
14	0	0	0	0	0	508	509	508	31	0	
15	0	0	0	0	0	511	509	505	31	0	
0	0	0	0	0	1	508	514	505	31	0	
1	0	0	0	0	0	510	510	507	31	0	
2	0	0	0	0	0	508	510	507	32	0	
3	0	0	0	0	0	509	512	505	31	0	
4	0	0	0	0	0	508	511	508	31	0	
5	0	0	0	0	0	504	514	507	31	0	
6	0	0	0	0	0	502	517	507	31	0	
7	0	0	0	0	0	500	515	508	31	0	
8	0	0	0	0	1	502	515	510	31	0	
9	0	0	0	0	0	506	511	512	31	0	
10	0	0	0	0	0	508	508	510	31	0	
11	0	0	0	0	0	509	509	511	32	0	
12	0	0	0	0	0	504	508	512	31	0	
13	0	0	0	0	0	504	511	511	31	0	
14	0	0	0	0	0	503	512	509	31	0	
15	0	0	0	0	0	505	515	509	31	0	
0	0	0	0	0	1	507	514	510	31	0	
1	0	0	0	0	0	507	517	510	31	0	
2	0	0	0	0	0	508	516	509	31	0	
3	0	0	0	0	0	507	522	507	31	0	
4	0	0	0	0	0	504	523	509	31	0	
5	0	0	0	0	0	502	513	508	31	0	
6	0	0	0	0	0	502	507	507	31	0	
7	0	0	0	0	0	505	500	507	32	0	
8	0	0	0	0	1	503	501	510	32	0	
9	0	0	0	0	0	507	507	510	32	0	
10	0	0	0	0	0	507	508	508	31	0	
11	0	0	0	0	0	505	515	510	31	0	
12	0	0	0	0	0	506	514	510	31	0	
13	0	0	0	0	0	507	506	509	31	0	
14	0	0	0	0	0	504	507	511	32	0	
15	0	0	0	0	0	502	510	510	31	0	
0	0	0	0	0	1	503	513	510	31	0	
1	0	0	0	0	0	505	517	508	31	0	
2	0	0	0	0	0	506	520	510	31	0	
3	0	0	0	0	0	508	521	507	31	0	
4	0	0	0	0	0	506	516	505	31	0	
5	0	0	0	0	0	502	515	510	31	0	
6	0	0	0	0	0	502	509	510	31	0	
7	0	0	0	0	0	503	507	514	32	0	
8	0	0	0	0	1	503	504	512	32	0	
9	0	0	0	0	0	503	508	513	32	0	
10	0	0	0	0	0	504	511	514	32	0	
11	0	0	0	0	0	509	514	508	31	0	
12	0	0	0	0	0	509	516	508	31	0	
13	0	0	0	0	0	506	512	508	31	0	
14	0	0	0	0	0	504	512	509	31	0	
15	0	0	0	0	0	507	512	509	31	0	
0	0	0	0	0	1	508	514	507	31	0	
1	0	0	0	0	0	507	512	504	31	0	
2	0	0	0	0	0	506	515	505	31	0	
3	0	0	0	0	0	508	513	508	31	0	
4	0	0	0	0	0	507	511	509	31	0	
5	0	0	0	0	0	505	511	508	31	0	
6	0	0	0	0	0	506	511	510	31	0	
7	0	0	0	0	0	508	512	508	31	0	
8	0	0	0	0	1	501	510	509	31	0	
9	0	0	0	0	0	501	511	512	31	0	
10	0	0	0	0	0	501	512	511	31	0	
11	0	0	0	0	0	501	513	512	31	0	
12	0	0	0	0	0	505	517	510	31	0	
13	0	0	0	0	0	509	511	508	31	0	
14	0	0	0	0	0	511	514	506	31	0	
15	0	0	0	0	0	510	520	506	31	0	
0	0	0	0	0	1	511	518	505	31	0	
1	0	0	0	0	0	507	514	507	31	0	
2	0	0	0	0	0	503	510	509	31	0	
3	0	0	0	0	0	501	507	511	31	0	
4	0	0	0	0	0	498	508	513	31	0	
5	0	0	0	0	0	503	506	509	32	0	
6	0	0	0	0	0	502	507	511	32	0	
7	0	0	0	0	0	503	507	510	32	0	
8	0	0	0	0	1	505	510	510	32	0	
9	0	0	0	0	0	506	509	510	31	0	
10	0	0	0	0	0	505	512	509	31	0	
11	0	0	0	0	0	504	515	510	31	0	
12	0	0	0	0	0	502	513	509	31	0	
13	0	0	0	0	0	505	516	510	31	0	
14	0	0	0	0	0	506	515	509	31	0	
15	0	0	0	0	0	503	515	511	31	0	
0	0	0	0	0	0	503	513	510	31	0	
1	0	0	0	0	0	507	510	507	31	0	
2	0	0	0	0	0	505	511	508	31	0	
3	0	0	0	0	0	502	507	508	31	0	
4	0	0	0	0	0	503	508	511	31	0	
5	0	0	0	0	0	505	509	511	32	0	
6	0	0	0	0	0	504	512	511	31	0	
7	0	0	0	0	0	507	515	507	31	0	
8	0	0	0	0	1	508	513	509	31	0	
9	0	0	0	0	0	510	509	507	32	0	
10	0	0	0	0	0	511	508	507	32	0	
11	0	0	0	0	0	510	512	505	32	0	
12	0	0	0	0	0	510	519	507	31	0	
13	0	0	0	0	0	508	518	505	31	0	
14	0	0	0	0	0	508	516	505	31	0	
15	0	0	0	0	0	503	515	508	31	0	
0	0	0	0	0	1	502	509	508	31	0	
1	0	0	0	0	0	499	507	508	31	0	
2	0	0	0	0	0	500	510	510	31	0	
3	0	0	0	0	0	503	512	511	31	0	
4	0	0	0	0	0	504	515	509	31	0	
5	0	0	0	0	0	503	512	510	31	0	
6	0	0	0	0	0	508	513	508	31	0	
7	0	0	0	0	0	508	510	508	31	0	
8	0	0	0	0	1	505	512	510	31	0	
9	0	0	0	0	0	504	512	511	31	0	
10	0	0	0	0	0	501	515	513	31	0	
11	0	0	0	0	0	504	517	512	31	0	
12	0	0	0	0	0	503	513	510	31	0	
13	0	0	0	0	0	504	510	508	31	0	
14	0	0	0	0	0	508	510	505	31	0	
15	0	0	0	0	0	508	512	508	32	0	
0	0	0	0	0	1	505	508	513	32	0	
1	0	0	0	0	0	504	507	513	32	0	
2	0	0	0	0	0	506	509	514	31	0	
3	0	0	0	0	0	507	509	509	31	0	
4	0	0	0	0	0	504	512	510	31	0	
5	0	0	0	0	0	504	513	508	31	0	
6	0	0	0	0	0	506	513	509	32	0	
7	0	0	0	0	0	504	514	507	31	0	
8	0	0	0	0	1	503	515	510	31	0	
9	0	0	0	0	0	502	515	511	31	0	
10	0	0	0	0	0	504	515	510	31	0	
11	0	0	0	0	0	507	510	508	31	0	
12	0	0	0	0	0	505	507	506	31	0	
13	0	0	0	0	0	505	508	505	31	0	
14	0	0	0	0	0	502	510	508	31	0	
15	0	0	0	0	0	505	513	508	31	0	
0	0	0	0	0	1	505	515	510	31	0	
1	0	0	0	0	0	504	515	509	31	0	
2	0	0	0	0	0	503	513	511	31	0	
3	0	0	0	0	0	505	512	511	31	0	
4	0	0	0	0	0	508	510	510	31	0	
5	0	0	0	0	0	509	510	507	31	0	
6	0	0	0	0	0	508	509	508	31	0	
7	0	0	0	0	0	508	511	505	31	0	
8	0	0	0	0	1	508	510	510	31	0	
9	0	0	0	0	0	504	508	509	32	0	
10	0	0	0	0	0	505	510	509	32	0	
11	0	0	0	0	0	503	512	509	31	0	
12	0	0	0	0	0	503	515	512	31	0	
13	0	0	0	0	0	503	514	512	31	0	
14	0	0	0	0	0	504	512	513	32	0	
15	0	0	0	0	0	505	514	511	31	0	
0	0	0	0	0	1	507	513	504	31	0	
1	0	0	0	0	0	504	513	505	31	0	
2	0	0	0	0	0	508	513	507	31	0	
3	0	0	0	0	0	507	511	511	31	0	
4	0	0	0	0	0	504	510	510	31	0	
5	0	0	0	0	0	503	513	509	31	0	
6	0	0	0	0	0	505	512	510	31	0	
7	0	0	0	0	0	503	511	508	31	0	
8	0	0	0	0	1	505	508	508	31	0	
9	0	0	0	0	0	504	511	507	31	0	
10	0	0	0	0	0	505	512	510	31	0	
11	0	0	0	0	0	504	514	512	31	0	
12	0	0	0	0	0	504	516	508	31	0	
13	0	0	0	0	0	508	513	507	31	0	
14	0	0	0	0	0	507	509	505	31	0	
15	0	0	0	0	0	504	508	510	31	0	
0	0	0	0	0	1	504	509	513	32	0	
1	0	0	0	0	0	506	512	512	31	0	
2	0	0	0	0	0	506	514	512	31	0	
3	0	0	0	0	0	504	516	512	31	0	
4	0	0	0	0	0	504	514	509	31	0	
5	0	0	0	0	0	505	513	508	31	0	
6	0	0	0	0	0	506	511	507	31	0	
7	0	0	0	0	0	507	511	507	31	0	
8	0	0	0	0	1	508	511	504	31	0	
9	0	0	0	0	0	508	512	504	31	0	
10	0	0	0	0	0	509	517	507	31	0	
11	0	0	0	0	0	510	519	507	31	0	
12	0	0	0	0	0	508	519	508	31	0	
13	0	0	0	0	0	505	515	511	31	0	
14	0	0	0	0	0	503	510	511	31	0	
15	0	0	0	0	0	500	504	512	32	0	
0	0	0	0	0	1	497	505	514	31	0	
1	0	0	0	0	0	497	509	513	31	0	
2	0	0	0	0	0	501	512	511	31	0	
3	0	0	0	0	0	503	509	511	31	0	
4	0	0	0	0	0	502	508	514	32	0	
5	0	0	0	0	0	504	510	510	32	0	
6	0	0	0	0	0	505	510	511	32	0	
7	0	0	0	0	0	504	512	510	31	0	
8	0	0	0	0	1	508	512	510	31	0	
9	0	0	0	0	0	507	513	508	31	0	
10	0	0	0	0	0	508	515	505	31	0	
11	0	0	0	0	0	507	517	509	31	0	
12	0	0	0	0	0	505	516	509	31	0	
13	0	0	0	0	0	506	513	505	31	0	
14	0	0	0	0	0	508	512	506	31	0	
15	0	0	0	0	0	508	512	506	31	0	
0	0	0	0	0	1	505	512	508	31	0	
1	0	0	0	0	0	505	513	508	31	0	
2	0	0	0	0	0	505	514	509	31	0	
3	0	0	0	0	0	507	514	510	31	0	
4	0	0	0	0	0	508	516	510	31	0	
5	0	0	0	0	0	507	513	507	31	0	
6	0	0	0	0	0	506	510	509	31	0	
7	0	0	0	0	0	504	507	511	32	0	
8	0	0	0	0	1	500	507	512	32	0	
9	0	0	0	0	0	498	509	511	32	0	
10	0	0	0	0	0	502	513	512	32	0	
11	0	0	0	0	0	507	515	511	31	0	
12	0	0	0	0	0	506	511	508	31	0	
13	0	0	0	0	0	506	511	509	31	0	
14	0	0	0	0	0	505	508	509	31	0	
15	0	0	0	0	0	505	511	507	31	0	
0	0	0	0	0	1	506	511	510	31	0	
1	0	0	0	0	0	506	513	509	31	0	
2	0	0	0	0	0	507	509	508	31	0	
3	0	0	0	0	0	506	509	511	31	0	
4	0	0	0	0	0	504	511	510	32	0	
5	0	0	0	0	0	504	513	510	32	0	
6	0	0	0	0	0	504	516	508	31	0	
7	0	0	0	0	0	504	515	510	31	0	
8	0	0	0	0	1	505	514	509	31	0	
9	0	0	0	0	0	505	511	511	31	0	
10	0	0	0	0	0	505	511	510	31	0	
11	0	0	0	0	0	505	511	511	31	0	
12	0	0	0	0	0	506	516	509	31	0	
13	0	0	0	0	0	509	512	505	31	0	
14	0	0	0	0	0	507	514	506	31	0	
15	0	0	0	0	0	505	511	508	31	0	
0	0	0	0	0	1	505	511	508	31	0	
1	0	0	0	0	0	505	511	509	31	0	
2	0	0	0	0	0	505	512	508	31	0	
3	0	0	0	0	0	508	513	510	31	0	
4	0	0	0	0	0	504	516	513	31	0	
5	0	0	0	0	0	503	514	512	31	0	
6	0	0	0	0	0	503	515	510	31	0	
7	0	0	0	0	0	504	515	510	31	0	
8	0	0	0	0	1	504	510	508	31	0	
9	0	0	0	0	0	504	511	508	31	0	
10	0	0	0	0	0	505	514	508	31	0	
11	0	0	0	0	0	507	514	510	31	0	
12	0	0	0	0	0	505	513	508	31	0	
13	0	0	0	0	0	505	513	510	31	0	
14	0	0	0	0	0	503	511	513	32	0	
15	0	0	0	0	0	503	510	511	32	0	
0	0	0	0	0	1	504	508	511	32	0	
1	0	0	0	0	0	504	510	510	31	0	
2	0	0	0	0	0	504	512	507	31	0	
3	0	0	0	0	0	504	513	508	31	0	
4	0	0	0	0	0	504	513	510	31	0	
5	0	0	0	0	0	504	512	511	31	0	
6	0	0	0	0	0	505	509	509	31	0	
7	0	0	0	0	0	507	510	510	31	0	
8	0	0	0	0	1	507	510	509	31	0	
9	0	0	0	0	0	510	511	508	31	0	
10	0	0	0	0	0	507	513	507	31	0	
11	0	0	0	0	0	505	513	508	31	0	
12	0	0	0	0	0	505	514	510	31	0	
13	0	0	0	0	0	504	515	510	31	0	
14	0	0	0	0	0	505	516	511	31	0	
15	0	0	0	0	0	507	513	510	31	0	
0	0	0	0	0	1	505	508	507	31	0	
1	0	0	0	0	0	506	511	508	31	0	
2	0	0	0	0	0	505	507	508	31	0	
3	0	0	0	0	0	502	507	510	31	0	
4	0	0	0	0	0	503	510	511	31	0	
5	0	0	0	0	0	505	514	509	31	0	
6	0	0	0	0	0	504	515	512	31	0	
7	0	0	0	0	0	502	513	512	31	0	
8	0	0	0	0	1	503	509	511	31	0	
9	0	0	0	0	0	504	510	508	31	0	
10	0	0	0	0	0	504	511	508	31	0	
11	0	0	0	0	0	505	511	505	31	0	
12	0	0	0	0	0	508	512	508	31	0	
13	0	0	0	0	0	502	514	510	31	0	
14	0	0	0	0	0	504	515	510	31	0	
15	0	0	0	0	0	505	516	508	31	0	
0	0	0	0	0	1	507	513	504	31	0	
1	0	0	0	0	0	512	508	505	31	0	
2	0	0	0	0	0	510	509	507	31	0	
3	0	0	0	0	0	506	512	506	31	0	
4	0	0	0	0	0	504	513	508	31	0	
5	0	0	0	0	0	503	512	512	31	0	
6	0	0	0	0	0	500	511	513	31	0	
7	0	0	0	0	0	504	510	512	31	0	
8	0	0	0	0	1	507	512	508	31	0	
9	0	0	0	0	0	507	513	508	31	0	
10	0	0	0	0	0	507	513	508	31	0	
11	0	0	0	0	0	505	512	510	31	0	
12	0	0	0	0	0	505	512	511	31	0	
13	0	0	0	0	0	505	513	508	31	0	
14	0	0	0	0	0	502	512	511	31	0	
15	0	0	0	0	0	504	510	510	32	0	
0	0	0	0	0	1	504	511	511	31	0	
1	0	0	0	0	0	504	511	506	31	0	
2	0	0	0	0	0	503	510	510	31	0	
3	0	0	0	0	0	503	513	509	31	0	
4	0	0	0	0	0	505	515	511	32	0	
5	0	0	0	0	0	504	513	509	31	0	
6	0	0	0	0	0	504	515	508	31	0	
7	0	0	0	0	0	505	514	508	31	0	
8	0	0	0	0	0	507	511	509	31	0	
9	0	0	0	0	0	507	511	508	31	0	
10	0	0	0	0	0	505	509	508	31	0	
11	0	0	0	0	0	506	510	509	31	0	
12	0	0	0	0	0	504	512	510	32	0	
13	0	0	0	0	0	504	511	507	31	0	
14	0	0	0	0	0	506	511	505	31	0	
15	0	0	0	0	0	507	515	508	31	0	
0	0	0	0	0	0	504	514	509	31	0	
1	0	0	0	0	0	504	513	510	31	0	
2	0	0	0	0	0	504	511	514	31	0	
3	0	0	0	0	0	503	510	508	31	0	
4	0	0	0	0	0	504	515	511	31	0	
5	0	0	0	0	0	504	515	510	31	0	
6	0	0	0	0	0	502	513	509	31	0	
7	0	0	0	0	0	504	510	508	31	0	
8	0	0	0	0	1	504	509	512	31	0	
9	0	0	0	0	0	508	510	508	31	0	
10	0	0	0	0	0	507	510	510	31	0	
11	0	0	0	0	0	506	513	509	31	0	
12	0	0	0	0	0	510	514	508	31	0	
13	0	0	0	0	0	507	512	508	31	0	
14	0	0	0	0	0	509	513	509	31	0	
15	0	0	0	0	0	510	512	508	31	0	
0	0	0	0	0	1	508	511	511	31	0	
1	0	0	0	0	0	503	512	511	31	0	
2	0	0	0	0	0	503	512	508	31	0	
3	0	0	0	0	0	504	515	508	31	0	
4	0	0	0	0	0	505	513	507	31	0	
5	0	0	0	0	0	505	513	508	31	0	
6	0	0	0	0	0	505	512	511	31	0	
7	0	0	0	0	0	504	510	509	31	0	
8	0	0	0	0	1	503	511	509	31	0	
9	0	0	0	0	0	499	509	513	32	0	
10	0	0	0	0	0	503	509	512	32	0	
11	0	0	0	0	0	504	509	511	31	0	
12	0	0	0	0	0	505	508	508	31	0	
13	0	0	0	0	0	504	512	509	31	0	
14	0	0	0	0	0	507	513	509	31	0	
15	0	0	0	0	0	508	511	508	31	0	
0	0	0	0	0	1	508	513	510	31	0	
1	0	0	0	0	0	509	510	508	31	0	
2	0	0	0	0	0	507	513	507	31	0	
3	0	0	0	0	0	508	515	507	31	0	
4	0	0	0	0	0	504	515	508	31	0	
5	0	0	0	0	0	505	514	508	31	0	
6	0	0	0	0	0	505	515	509	31	0	
7	0	0	0	0	0	505	512	508	31	0	
8	0	0	0	0	1	503	515	510	31	0	
9	0	0	0	0	0	505	514	512	31	0	
10	0	0	0	0	0	504	513	511	31	0	
11	0	0	0	0	0	503	511	509	31	0	
12	0	0	0	0	0	503	512	511	31	0	
13	0	0	0	0	0	502	516	510	31	0	
14	0	0	0	0	0	506	514	509	32	0	
15	0	0	0	0	0	504	509	508	32	0	
0	0	0	0	0	1	505	510	508	32	0	
1	0	0	0	0	0	504	514	508	31	0	
2	0	0	0	0	0	505	513	509	31	0	
3	0	0	0	0	0	506	507	509	31	0	
4	0	0	0	0	0	505	508	511	31	0	
5	0	0	0	0	0	502	511	512	31	0	
6	0	0	0	0	0	502	513	513	31	0	
7	0	0	0	0	0	503	508	508	31	0	
8	0	0	0	0	1	506	508	507	31	0	
9	0	0	0	0	0	505	508	508	31	0	
10	0	0	0	0	0	506	511	511	31	0	
11	0	0	0	0	0	503	515	509	31	0	
12	0	0	0	0	0	507	515	511	31	0	
13	0	0	0	0	0	505	514	510	31	0	
14	0	0	0	0	0	505	511	510	31	0	
15	0	0	0	0	0	509	512	509	31	0	
0	0	0	0	0	1	509	511	508	32	0	
1	0	0	0	0	0	505	511	510	31	0	
2	0	0	0	0	0	503	510	511	31	0	
3	0	0	0	0	0	499	509	511	31	0	
4	0	0	0	0	0	505	514	508	31	0	
5	0	0	0	0	0	506	515	506	31	0	
6	0	0	0	0	0	505	518	505	31	0	
7	0	0	0	0	0	506	513	508	31	0	
8	0	0	0	0	1	508	513	508	31	0	
9	0	0	0	0	0	507	512	507	31	0	
10	0	0	0	0	0	507	512	507	31	0	
11	0	0	0	0	0	505	512	509	31	0	
12	0	0	0	0	0	504	512	508	31	0	
13	0	0	0	0	0	506	511	509	31	0	
14	0	0	0	0	0	504	513	508	31	0	
15	0	0	0	0	0	505	511	512	31	0	
0	0	0	0	0	1	504	510	513	31	0	
1	0	0	0	0	0	502	509	510	31	0	
2	0	0	0	0	0	504	511	511	31	0	
3	0	0	0	0	0	504	508	508	31	0	
4	0	0	0	0	0	503	509	509	31	0	
5	0	0	0	0	0	504	509	508	31	0	
6	0	0	0	0	0	504	513	510	31	0	
7	0	0	0	0	0	504	519	507	31	0	
8	0	0	0	0	1	506	523	508	31	0	
9	0	0	0	0	0	508	521	508	31	0	
10	0	0	0	0	0	508	518	508	31	0	
11	0	0	0	0	0	508	511	507	31	0	
12	0	0	0	0	0	511	509	508	31	0	
13	0	0	0	0	0	510	509	509	31	0	
14	0	0	0	0	0	504	509	512	31	0	
15	0	0	0	0	0	504	511	510	31	0	
0	0	0	0	0	1	504	513	511	31	0	
1	0	0	0	0	0	501	509	510	31	0	
2	0	0	0	0	0	502	509	509	31	0	
3	0	0	0	0	0	504	510	508	32	0	
4	0	0	0	0	0	506	512	509	31	0	
5	0	0	0	0	0	502	508	509	32	0	
6	0	0	0	0	0	503	509	510	31	0	
7	0	0	0	0	0	504	511	509	31	0	
8	0	0	0	0	1	503	511	510	31	0	
9	0	0	0	0	0	504	510	510	31	0	
10	0	0	0	0	0	505	513	510	31	0	
11	0	0	0	0	0	504	512	511	31	0	
12	0	0	0	0	0	504	510	511	31	0	
13	0	0	0	0	0	504	510	511	32	0	
14	0	0	0	0	0	504	511	511	31	0	
15	0	0	0	0	0	504	511	512	31	0	
0	0	0	0	0	1	504	514	512	31	0	
1	0	0	0	0	0	504	516	507	31	0	
2	0	0	0	0	0	505	518	504	31	0	
3	0	0	0	0	0	507	514	506	31	0	
4	0	0	0	0	0	510	511	507	31	0	
5	0	0	0	0	0	508	509	507	31	0	
6	0	0	0	0	0	505	503	511	32	0	
7	0	0	0	0	0	506	507	510	31	0	
8	0	0	0	0	1	504	512	510	31	0	
9	0	0	0	0	0	504	513	508	31	0	
10	0	0	0	0	0	507	515	508	31	0	
11	0	0	0	0	0	507	516	509	31	0	
12	0	0	0	0	0	509	517	508	31	0	
13	0	0	0	0	0	506	518	510	31	0	
14	0	0	0	0	0	507	515	510	31	0	
15	0	0	0	0	0	505	513	508	31	0	
0	0	0	0	0	1	505	511	510	31	0	
1	0	0	0	0	0	503	511	510	31	0	
2	0	0	0	0	0	502	511	508	31	0	
3	0	0	0	0	0	501	510	509	31	0	
4	0	0	0	0	0	500	512	508	31	0	
5	0	0	0	0	0	503	511	508	31	0	
6	0	0	0	0	0	504	512	511	31	0	
7	0	0	0	0	0	506	513	511	31	0	
8	0	0	0	0	1	507	513	508	31	0	
9	0	0	0	0	0	507	511	510	31	0	
10	0	0	0	0	0	508	510	510	31	0	
11	0	0	0	0	0	507	508	509	32	0	
12	0	0	0	0	0	509	507	510	31	0	
13	0	0	0	0	0	507	508	511	32	0	
14	0	0	0	0	0	503	510	513	32	0	
15	0	0	0	0	0	501	517	509	31	0	
0	0	0	0	0	1	500	521	514	31	0	
1	0	0	0	0	0	503	518	510	31	0	
2	0	0	0	0	0	505	516	508	31	0	
3	0	0	0	0	0	505	510	509	31	0	
4	0	0	0	0	0	502	512	509	31	0	
5	0	0	0	0	0	501	512	507	31	0	
6	0	0	0	0	0	505	514	507	31	0	
7	0	0	0	0	0	504	512	506	31	0	
8	0	0	0	0	1	505	511	506	31	0	
9	0	0	0	0	0	505	510	508	31	0	
10	0	0	0	0	0	505	508	511	31	0	
11	0	0	0	0	0	507	508	510	31	0	
12	0	0	0	0	0	512	506	507	31	0	
13	0	0	0	0	0	514	507	508	31	0	
14	0	0	0	0	0	511	510	507	31	0	
15	0	0	0	0	0	508	514	510	31	0	
0	0	0	0	0	1	504	512	511	31	0	
1	0	0	0	0	0	504	514	512	31	0	
2	0	0	0	0	0	499	510	510	31	0	
3	0	0	0	0	0	497	510	509	31	0	
4	0	0	0	0	0	495	517	510	31	0	
5	0	0	0	0	0	499	517	511	31	0	
6	0	0	0	0	0	504	519	510	31	0	
7	0	0	0	0	0	510	520	509	31	0	
8	0	0	0	0	1	511	514	508	31	0	
9	0	0	0	0	0	512	512	508	31	0	
10	0	0	0	0	0	510	508	507	31	0	
11	0	0	0	0	0	506	508	508	31	0	
12	0	0	0	0	0	506	507	510	31	0	
13	0	0	0	0	0	504	507	509	31	0	
14	0	0	0	0	0	504	509	510	31	0	
15	0	0	0	0	0	505	509	510	31	0	
0	0	0	0	0	1	503	513	511	31	0	
1	0	0	0	0	0	502	512	510	31	0	
2	0	0	0	0	0	500	516	512	31	0	
3	0	0	0	0	0	501	516	511	31	0	
4	0	0	0	0	0	503	512	508	31	0	
5	0	0	0	0	0	504	508	511	31	0	
6	0	0	0	0	0	507	508	510	31	0	
7	0	0	0	0	0	506	513	508	31	0	
8	0	0	0	0	1	508	512	506	31	0	
9	0	0	0	0	0	504	505	508	31	0	
10	0	0	0	0	0	503	504	509	32	0	
11	0	0	0	0	0	501	507	511	31	0	
12	0	0	0	0	0	503	515	510	31	0	
13	0	0	0	0	0	505	525	510	31	0	
14	0	0	0	0	0	508	526	511	31	0	
15	0	0	0	0	0	508	519	510	31	0	
0	0	0	0	0	1	510	510	509	31	0	
1	0	0	0	0	0	507	503	510	31	0	
2	0	0	0	0	0	504	500	512	31	0	
3	0	0	0	0	0	502	506	512	31	0	
4	0	0	0	0	0	501	508	509	31	0	
5	0	0	0	0	0	503	508	511	31	0	
6	0	0	0	0	0	506	515	510	31	0	
7	0	0	0	0	0	504	518	508	31	0	
8	0	0	0	0	1	504	518	508	32	0	
9	0	0	0	0	0	505	518	508	31	0	
10	0	0	0	0	0	510	518	508	31	0	
11	0	0	0	0	0	512	514	506	31	0	
12	0	0	0	0	0	514	510	505	31	0	
13	0	0	0	0	0	514	504	507	31	0	
14	0	0	0	0	0	510	503	513	31	0	
15	0	0	0	0	0	503	502	511	31	0	
0	0	0	0	0	0	498	504	511	31	0	
1	0	0	0	0	0	495	514	512	31	0	
2	0	0	0	0	0	497	519	511	31	0	
3	0	0	0	0	0	506	523	508	31	0	
4	0	0	0	0	0	506	519	506	31	0	
5	0	0	0	0	0	508	515	507	31	0	
6	0	0	0	0	0	508	510	509	31	0	
7	0	0	0	0	0	508	508	509	31	0	
8	0	0	0	0	0	507	509	510	31	0	
9	0	0	0	0	0	506	510	509	31	0	
10	0	0	0	0	0	507	513	510	31	0	
11	0	0	0	0	0	504	508	507	31	0	
12	0	0	0	0	0	498	513	508	31	0	
13	0	0	0	0	0	496	516	511	31	0	
14	0	0	0	0	0	497	520	513	31	0	
15	0	0	0	0	0	504	523	513	31	0	
0	0	0	0	0	1	507	514	510	32	0	
1	0	0	0	0	0	510	507	510	31	0	
2	0	0	0	0	0	507	509	512	31	0	
3	0	0	0	0	0	507	514	510	31	0	
4	0	0	0	0	0	502	522	508	31	0	
5	0	0	0	0	0	504	513	508	31	0	
6	0	0	0	0	0	506	503	505	31	0	
7	0	0	0	0	0	508	499	509	31	0	
8	0	0	0	0	1	508	501	510	31	0	
9	0	0	0	0	0	510	505	508	32	0	
10	0	0	0	0	0	508	515	507	31	0	
11	0	0	0	0	0	510	515	505	31	0	
12	0	0	0	0	0	507	523	505	31	0	
13	0	0	0	0	0	505	527	506	31	0	
14	0	0	0	0	0	505	522	507	31	0	
15	0	0	0	0	0	504	515	510	31	0	
0	0	0	0	0	1	503	507	511	32	0	
1	0	0	0	0	0	504	508	513	31	0	
2	0	0	0	0	0	504	507	511	31	0	
3	0	0	0	0	0	504	499	512	32	0	
4	0	0	0	0	0	503	492	511	32	0	
5	0	0	0	0	0	504	491	512	32	0	
6	0	0	0	0	0	504	495	512	32	0	
7	0	0	0	0	0	503	515	508	31	0	
8	0	0	0	0	1	503	549	511	31	0	
9	0	0	0	0	0	504	557	509	31	0	
10	0	0	0	0	0	502	537	510	31	0	
11	0	0	0	0	0	504	519	507	31	0	
12	0	0	0	0	0	502	504	507	31	0	
13	0	0	0	0	0	499	492	509	32	0	
14	0	0	0	0	0	499	493	508	31	0	
15	0	0	0	0	0	504	501	509	31	0	
0	0	0	0	0	1	509	511	510	31	0	
1	0	0	0	0	0	514	516	507	31	0	
2	0	0	0	0	0	513	510	508	31	0	
3	0	0	0	0	0	516	509	508	31	0	
4	0	0	0	0	0	512	515	506	31	0	
5	0	0	0	0	0	509	515	508	31	0	
6	0	0	0	0	0	504	513	508	31	0	
7	0	0	0	0	0	504	510	512	31	0	
8	0	0	0	0	1	501	504	512	32	0	
9	0	0	0	0	0	500	499	512	32	0	
10	0	0	0	0	0	502	510	511	32	0	
11	0	0	0	0	0	501	517	510	31	0	
12	0	0	0	0	0	502	516	512	31	0	
13	0	0	0	0	0	500	514	511	31	0	
14	0	0	0	0	0	503	515	510	31	0	
15	0	0	0	0	0	505	510	508	31	0	
0	0	0	0	0	1	506	504	508	31	0	
1	0	0	0	0	0	501	508	512	31	0	
2	0	0	0	0	0	499	510	511	32	0	
3	0	0	0	0	0	499	515	513	31	0	
4	0	0	0	0	0	505	527	511	31	0	
5	0	0	0	0	0	508	530	506	31	0	
6	0	0	0	0	0	513	528	507	31	0	
7	0	0	0	0	0	512	522	505	31	0	
8	0	0	0	0	1	511	510	507	31	0	
9	0	0	0	0	0	508	505	508	31	0	
10	0	0	0	0	0	507	499	509	31	0	
11	0	0	0	0	0	505	500	507	31	0	
12	0	0	0	0	0	505	500	510	31	0	
13	0	0	0	0	0	507	501	507	31	0	
14	0	0	0	0	0	506	504	508	31	0	
15	0	0	0	0	0	507	507	511	31	0	
0	0	0	0	0	1	507	513	508	31	0	
1	0	0	0	0	0	502	519	509	31	0	
2	0	0	0	0	0	502	523	508	31	0	
3	0	0	0	0	0	502	524	508	31	0	
4	0	0	0	0	0	504	523	506	31	0	
5	0	0	0	0	0	504	520	511	31	0	
6	0	0	0	0	0	504	510	511	31	0	
7	0	0	0	0	0	503	506	512	31	0	
8	0	0	0	0	1	502	506	514	31	0	
9	0	0	0	0	0	505	510	511	31	0	
10	0	0	0	0	0	507	515	509	31	0	
11	0	0	0	0	0	506	518	507	31	0	
12	0	0	0	0	0	508	516	504	31	0	
13	0	0	0	0	0	506	513	506	31	0	
14	0	0	0	0	0	504	506	508	31	0	
15	0	0	0	0	0	506	499	511	31	0	
0	0	0	0	0	1	503	493	514	32	0	
1	0	0	0	0	0	503	494	512	31	0	
2	0	0	0	0	0	501	502	512	31	0	
3	0	0	0	0	0	501	515	514	31	0	
4	0	0	0	0	0	505	534	511	31	0	
5	0	0	0	0	0	507	551	509	31	0	
6	0	0	0	0	0	507	543	507	31	0	
7	0	0	0	0	0	508	527	507	31	0	
8	0	0	0	0	1	505	513	505	31	0	
9	0	0	0	0	0	503	495	508	31	0	
10	0	0	0	0	0	503	496	509	32	0	
11	0	0	0	0	0	503	496	508	31	0	
12	0	0	0	0	0	502	501	509	31	0	
13	0	0	0	0	0	501	504	510	31	0	
14	0	0	0	0	0	505	507	509	31	0	
15	0	0	0	0	0	509	508	507	31	0	
0	0	0	0	0	1	513	504	508	31	0	
1	0	0	0	0	0	513	503	508	31	0	
2	0	0	0	0	0	511	511	508	31	0	
3	0	0	0	0	0	504	523	509	31	0	
4	0	0	0	0	0	504	523	512	31	0	
5	0	0	0	0	0	502	523	511	31	0	
6	0	0	0	0	0	504	519	511	31	0	
7	0	0	0	0	0	503	513	511	31	0	
8	0	0	0	0	1	501	509	513	31	0	
9	0	0	0	0	0	505	510	512	31	0	
10	0	0	0	0	0	505	512	512	31	0	
11	0	0	0	0	0	504	510	510	31	0	
12	0	0	0	0	0	505	510	508	31	0	
13	0	0	0	0	0	502	513	508	31	0	
14	0	0	0	0	0	502	512	508	31	0	
15	0	0	0	0	0	503	509	508	31	0	
0	0	0	0	0	1	502	503	510	31	0	
1	0	0	0	0	0	504	503	510	31	0	
2	0	0	0	0	0	506	510	508	31	0	
3	0	0	0	0	0	505	521	512	31	0	
4	0	0	0	0	0	508	518	511	31	0	
5	0	0	0	0	0	511	516	507	31	0	
6	0	0	0	0	0	510	512	508	31	0	
7	0	0	0	0	0	508	514	510	31	0	
8	0	0	0	0	1	505	517	509	31	0	
9	0	0	0	0	0	506	517	505	31	0	
10	0	0	0	0	0	504	515	509	31	0	
11	0	0	0	0	0	504	513	508	31	0	
12	0	0	0	0	0	502	511	508	31	0	
13	0	0	0	0	0	503	507	508	31	0	
14	0	0	0	0	0	503	508	508	31	0	
15	0	0	0	0	0	501	507	510	31	0	
0	0	0	0	0	1	506	508	508	31	0	
1	0	0	0	0	0	506	510	507	31	0	
2	0	0	0	0	0	504	508	509	31	0	
3	0	0	0	0	0	504	506	511	31	0	
4	0	0	0	0	0	505	512	510	31	0	
5	0	0	0	0	0	505	514	510	31	0	
6	0	0	0	0	0	507	515	511	31	0	
7	0	0	0	0	0	508	517	512	31	0	
8	0	0	0	0	1	508	515	510	31	0	
9	0	0	0	0	0	507	513	510	31	0	
10	0	0	0	0	0	506	515	510	31	0	
11	0	0	0	0	0	505	511	508	31	0	
12	0	0	0	0	0	506	510	507	31	0	
13	0	0	0	0	0	501	509	508	31	0	
14	0	0	0	0	0	499	506	513	31	0	
15	0	0	0	0	0	502	508	512	31	0	
0	0	0	0	0	1	501	514	511	31	0	
1	0	0	0	0	0	499	511	512	31	0	
2	0	0	0	0	0	501	509	511	31	0	
3	0	0	0	0	0	508	519	507	31	0	
4	0	0	0	0	0	512	521	507	31	0	
5	0	0	0	0	0	513	515	506	31	0	
6	0	0	0	0	0	514	517	508	31	0	
7	0	0	0	0	0	507	516	508	31	0	
8	0	0	0	0	1	503	512	507	31	0	
9	0	0	0	0	0	504	508	509	31	0	
10	0	0	0	0	0	503	506	509	31	0	
11	0	0	0	0	0	504	507	510	31	0	
12	0	0	0	0	0	504	508	511	31	0	
13	0	0	0	0	0	506	508	510	31	0	
14	0	0	0	0	0	503	510	511	31	0	
15	0	0	0	0	0	504	510	512	31	0	
0	0	0	0	0	1	506	513	508	31	0	
1	0	0	0	0	0	507	512	508	31	0	
2	0	0	0	0	0	504	513	510	31	0	
3	0	0	0	0	0	507	511	511	32	0	
4	0	0	0	0	0	505	511	510	32	0	
5	0	0	0	0	0	507	510	512	32	0	
6	0	0	0	0	0	507	511	510	32	0	
7	0	0	0	0	0	507	513	507	31	0	
8	0	0	0	0	1	504	519	511	31	0	
9	0	0	0	0	0	502	528	510	31	0	
10	0	0	0	0	0	502	525	512	31	0	
11	0	0	0	0	0	504	512	508	31	0	
12	0	0	0	0	0	506	509	512	31	0	
13	0	0	0	0	0	507	513	509	31	0	
14	0	0	0	0	0	508	509	504	31	0	
15	0	0	0	0	0	505	505	506	31	0	
0	0	0	0	0	1	501	504	509	31	0	
1	0	0	0	0	0	501	505	508	31	0	
2	0	0	0	0	0	500	508	505	31	0	
3	0	0	0	0	0	504	512	502	31	0	
4	0	0	0	0	0	509	511	504	31	0	
5	0	0	0	0	0	510	505	505	31	0	
6	0	0	0	0	0	509	505	504	31	0	
7	0	0	0	0	0	508	507	508	31	0	
8	0	0	0	0	1	507	513	508	31	0	
9	0	0	0	0	0	508	513	511	31	0	
10	0	0	0	0	0	502	515	511	31	0	
11	0	0	0	0	0	501	517	512	31	0	
12	0	0	0	0	0	499	516	510	31	0	
13	0	0	0	0	0	497	513	512	31	0	
14	0	0	0	0	0	499	514	511	31	0	
15	0	0	0	0	0	505	512	508	31	0	
0	0	0	0	0	1	507	509	508	31	0	
1	0	0	0	0	0	508	510	508	31	0	
2	0	0	0	0	0	507	513	509	31	0	
3	0	0	0	0	0	507	511	511	31	0	
4	0	0	0	0	0	507	513	510	31	0	
5	0	0	0	0	0	506	517	508	31	0	
6	0	0	0	0	0	506	521	510	31	0	
7	0	0	0	0	0	507	515	508	31	0	
8	0	0	0	0	1	503	509	512	31	0	
9	0	0	0	0	0	503	510	511	31	0	
10	0	0	0	0	0	504	512	511	31	0	
11	0	0	0	0	0	500	513	511	31	0	
12	0	0	0	0	0	502	515	510	31	0	
13	0	0	0	0	0	504	509	510	31	0	
14	0	0	0	0	0	513	510	510	31	0	
15	0	0	0	0	0	518	516	511	31	0	
0	0	0	0	0	0	518	517	508	31	0	
1	0	0	0	0	0	514	515	508	31	0	
2	0	0	0	0	0	504	513	508	31	0	
3	0	0	0	0	0	498	508	510	31	0	
4	0	0	0	0	0	499	508	509	31	0	
5	0	0	0	0	0	498	504	510	31	0	
6	0	0	0	0	0	503	507	511	32	0	
7	0	0	0	0	0	504	510	509	31	0	
8	0	0	0	0	0	504	513	508	32	0	
9	0	0	0	0	0	508	513	509	32	0	
10	0	0	0	0	0	508	512	508	31	0	
11	0	0	0	0	0	508	514	507	31	0	
12	0	0	0	0	0	504	520	511	31	0	
13	0	0	0	0	0	501	516	513	31	0	
14	0	0	0	0	0	501	511	514	32	0	
15	0	0	0	0	0	503	508	511	31	0	
0	0	0	0	0	1	505	505	511	31	0	
1	0	0	0	0	0	506	508	509	31	0	
2	0	0	0	0	0	504	509	509	31	0	
3	0	0	0	0	0	505	507	508	31	0	
4	0	0	0	0	0	505	508	508	31	0	
5	0	0	0	0	0	505	504	511	31	0	
6	0	0	0	0	0	504	509	510	31	0	
7	0	0	0	0	0	504	518	508	31	0	
8	0	0	0	0	1	501	527	510	31	0	
9	0	0	0	0	0	502	523	511	31	0	
10	0	0	0	0	0	504	515	508	31	0	
11	0	0	0	0	0	505	512	507	31	0	
12	0	0	0	0	0	507	508	511	31	0	
13	0	0	0	0	0	508	509	509	31	0	
14	0	0	0	0	0	507	510	508	31	0	
15	0	0	0	0	0	508	511	507	31	0	
0	0	0	0	0	1	508	511	507	31	0	
1	0	0	0	0	0	507	523	509	31	0	
2	0	0	0	0	0	509	519	508	31	0	
3	0	0	0	0	0	505	515	507	31	0	
4	0	0	0	0	0	504	518	508	31	0	
5	0	0	0	0	0	503	515	509	31	0	
6	0	0	0	0	0	504	512	510	31	0	
7	0	0	0	0	0	502	505	508	32	0	
8	0	0	0	0	1	501	505	511	31	0	
9	0	0	0	0	0	502	505	512	32	0	
10	0	0	0	0	0	508	503	511	32	0	
11	0	0	0	0	0	511	507	510	31	0	
12	0	0	0	0	0	511	510	508	31	0	
13	0	0	0	0	0	510	514	510	31	0	
14	0	0	0	0	0	508	514	512	31	0	
15	0	0	0	0	0	504	515	510	31	0	
0	0	0	0	0	1	503	515	510	31	0	
1	0	0	0	0	0	499	515	508	31	0	
2	0	0	0	0	0	500	515	510	31	0	
3	0	0	0	0	0	503	514	510	31	0	
4	0	0	0	0	0	502	511	508	31	0	
5	0	0	0	0	0	505	513	508	31	0	
6	0	0	0	0	0	506	511	508	31	0	
7	0	0	0	0	0	506	509	507	31	0	
8	0	0	0	0	1	507	511	508	31	0	
9	0	0	0	0	0	506	508	508	31	0	
10	0	0	0	0	0	505	508	509	31	0	
11	0	0	0	0	0	503	513	510	31	0	
12	0	0	0	0	0	502	512	509	31	0	
13	0	0	0	0	0	501	509	513	31	0	
14	0	0	0	0	0	505	508	512	31	0	
15	0	0	0	0	0	507	510	513	31	0	
0	0	0	0	0	1	506	516	510	31	0	
1	0	0	0	0	0	505	520	508	31	0	
2	0	0	0	0	0	504	519	507	31	0	
3	0	0	0	0	0	505	515	507	31	0	
4	0	0	0	0	0	504	510	507	31	0	
5	0	0	0	0	0	508	511	503	31	0	
6	0	0	0	0	0	511	512	507	31	0	
7	0	0	0	0	0	512	511	507	31	0	
8	0	0	0	0	1	508	516	508	31	0	
9	0	0	0	0	0	508	514	508	31	0	
10	0	0	0	0	0	507	511	511	31	0	
11	0	0	0	0	0	506	511	509	31	0	
12	0	0	0	0	0	504	513	510	31	0	
13	0	0	0	0	0	502	513	510	31	0	
14	0	0	0	0	0	503	518	510	31	0	
15	0	0	0	0	0	502	511	511	31	0	
0	0	0	0	0	1	502	508	511	31	0	
1	0	0	0	0	0	496	507	512	32	0	
2	0	0	0	0	0	499	507	513	31	0	
3	0	0	0	0	0	504	505	510	31	0	
4	0	0	0	0	0	503	504	509	31	0	
5	0	0	0	0	0	506	513	508	31	0	
6	0	0	0	0	0	508	516	507	31	0	
7	0	0	0	0	0	508	519	508	31	0	
8	0	0	0	0	1	504	514	509	31	0	
9	0	0	0	0	0	504	510	507	31	0	
10	0	0	0	0	0	504	514	508	31	0	
11	0	0	0	0	0	504	514	509	31	0	
12	0	0	0	0	0	505	514	513	31	0	
13	0	0	0	0	0	503	513	510	31	0	
14	0	0	0	0	0	504	512	512	32	0	
15	0	0	0	0	0	503	509	511	31	0	
0	0	0	0	0	1	503	512	511	31	0	
1	0	0	0	0	0	504	511	512	31	0	
2	0	0	0	0	0	505	508	510	31	0	
3	0	0	0	0	0	506	511	510	31	0	
4	0	0	0	0	0	509	513	509	31	0	
5	0	0	0	0	0	508	513	506	31	0	
6	0	0	0	0	0	510	512	505	31	0	
7	0	0	0	0	0	508	513	509	31	0	
8	0	0	0	0	1	503	518	508	31	0	
9	0	0	0	0	0	503	522	506	31	0	
10	0	0	0	0	0	508	515	508	31	0	
11	0	0	0	0	0	509	510	508	31	0	
12	0	0	0	0	0	508	508	509	32	0	
13	0	0	0	0	0	507	510	509	31	0	
14	0	0	0	0	0	504	509	511	31	0	
15	0	0	0	0	0	504	511	510	31	0	
0	0	0	0	0	1	501	512	510	31	0	
1	0	0	0	0	0	504	510	511	31	0	
2	0	0	0	0	0	506	510	509	31	0	
3	0	0	0	0	0	505	509	509	31	0	
4	0	0	0	0	0	507	513	508	31	0	
5	0	0	0	0	0	507	516	507	31	0	
6	0	0	0	0	0	507	517	507	31	0	
7	0	0	0	0	0	507	513	507	31	0	
8	0	0	0	0	1	507	512	508	31	0	
9	0	0	0	0	0	504	508	509	31	0	
10	0	0	0	0	0	504	508	513	31	0	
11	0	0	0	0	0	503	510	511	31	0	
12	0	0	0	0	0	502	510	509	31	0	
13	0	0	0	0	0	501	508	511	31	0	
14	0	0	0	0	0	501	508	512	31	0	
15	0	0	0	0	0	503	507	512	32	0	
0	0	0	0	0	1	505	511	512	31	0	
1	0	0	0	0	0	504	518	512	31	0	
2	0	0	0	0	0	507	518	509	31	0	
3	0	0	0	0	0	509	522	508	31	0	
4	0	0	0	0	0	509	519	508	31	0	
5	0	0	0	0	0	504	515	505	31	0	
6	0	0	0	0	0	504	510	506	31	0	
7	0	0	0	0	0	506	511	508	31	0	
8	0	0	0	0	1	506	508	507	31	0	
9	0	0	0	0	0	506	511	508	31	0	
10	0	0	0	0	0	508	510	507	31	0	
11	0	0	0	0	0	508	511	508	31	0	
12	0	0	0	0	0	503	511	509	31	0	
13	0	0	0	0	0	502	511	511	32	0	
14	0	0	0	0	0	499	512	513	31	0	
15	0	0	0	0	0	502	513	510	31	0	
0	0	0	0	0	1	505	515	512	31	0	
1	0	0	0	0	0	505	512	512	31	0	
2	0	0	0	0	0	506	511	513	31	0	
3	0	0	0	0	0	506	511	511	31	0	
4	0	0	0	0	0	504	508	510	31	0	
5	0	0	0	0	0	502	511	510	31	0	
6	0	0	0	0	0	504	513	508	31	0	
7	0	0	0	0	0	505	516	507	31	0	
8	0	0	0	0	1	504	514	507	31	0	
9	0	0	0	0	0	503	510	507	31	0	
10	0	0	0	0	0	504	505	509	31	0	
11	0	0	0	0	0	504	508	507	31	0	
12	0	0	0	0	0	508	507	505	31	0	
13	0	0	0	0	0	512	510	508	31	0	
14	0	0	0	0	0	508	513	507	31	0	
15	0	0	0	0	0	506	516	510	31	0	
0	0	0	0	0	1	504	519	510	31	0	
1	0	0	0	0	0	504	516	509	31	0	
2	0	0	0	0	0	504	511	511	31	0	
3	0	0	0	0	0	504	508	515	31	0	
4	0	0	0	0	0	505	513	510	31	0	
5	0	0	0	0	0	505	517	507	31	0	
6	0	0	0	0	0	504	519	510	31	0	
7	0	0	0	0	0	505	518	509	31	0	
8	0	0	0	0	1	506	513	507	31	0	
9	0	0	0	0	0	506	511	509	31	0	
10	0	0	0	0	0	506	509	507	31	0	
11	0	0	0	0	0	507	508	508	31	0	
12	0	0	0	0	0	507	506	508	31	0	
13	0	0	0	0	0	505	506	509	31	0	
14	0	0	0	0	0	504	511	510	31	0	
15	0	0	0	0	0	505	510	508	31	0	
0	0	0	0	0	1	503	512	511	31	0	
1	0	0	0	0	0	504	512	514	31	0	
2	0	0	0	0	0	503	515	511	31	0	
3	0	0	0	0	0	502	515	512	31	0	
4	0	0	0	0	0	504	514	509	31	0	
5	0	0	0	0	0	503	511	510	31	0	
6	0	0	0	0	0	504	511	508	31	0	
7	0	0	0	0	0	505	511	510	31	0	
8	0	0	0	0	1	506	509	510	31	0	
9	0	0	0	0	0	507	511	508	31	0	
10	0	0	0	0	0	505	510	509	31	0	
11	0	0	0	0	0	504	509	509	31	0	
12	0	0	0	0	0	505	511	506	31	0	
13	0	0	0	0	0	509	512	507	31	0	
14	0	0	0	0	0	507	515	508	31	0	
15	0	0	0	0	0	507	514	510	31	0	
0	0	0	0	0	1	506	514	506	31	0	
1	0	0	0	0	0	506	515	510	31	0	
2	0	0	0	0	0	504	519	508	31	0	
3	0	0	0	0	0	506	517	507	31	0	
4	0	0	0	0	0	506	511	508	31	0	
5	0	0	0	0	0	504	506	512	32	0	
6	0	0	0	0	0	502	506	513	32	0	
7	0	0	0	0	0	503	510	510	31	0	
8	0	0	0	0	1	503	518	511	31	0	
9	0	0	0	0	0	505	521	510	31	0	
10	0	0	0	0	0	506	526	507	31	0	
11	0	0	0	0	0	505	516	506	31	0	
12	0	0	0	0	0	505	510	509	31	0	
13	0	0	0	0	0	505	507	510	31	0	
14	0	0	0	0	0	504	504	507	31	0	
15	0	0	0	0	0	508	507	506	31	0	
0	0	0	0	0	0	508	505	508	31	0	
1	0	0	0	0	0	510	508	511	32	0	
2	0	0	0	0	0	508	507	510	32	0	
3	0	0	0	0	0	508	507	510	31	0	
4	0	0	0	0	0	507	509	511	31	0	
5	0	0	0	0	0	502	508	510	31	0	
6	0	0	0	0	0	504	513	510	31	0	
7	0	0	0	0	0	504	518	509	31	0	
8	0	0	0	0	0	507	518	509	31	0	
9	0	0	0	0	0	507	518	508	31	0	
10	0	0	0	0	0	503	513	508	31	0	
11	0	0	0	0	0	502	515	509	31	0	
12	0	0	0	0	0	504	515	508	31	0	
13	0	0	0	0	0	502	512	509	31	0	
14	0	0	0	0	0	504	511	509	31	0	
15	0	0	0	0	0	503	508	508	31	0	
0	0	0	0	0	0	503	510	509	31	0	
1	0	0	0	0	0	504	508	511	31	0	
2	0	0	0	0	0	504	509	510	31	0	
3	0	0	0	0	0	504	511	510	31	0	
4	0	0	0	0	0	502	511	511	31	0	
5	0	0	0	0	0	503	514	514	31	0	
6	0	0	0	0	0	503	516	511	31	0	
7	0	0	0	0	0	504	518	511	32	0	
8	0	0	0	0	1	506	515	507	31	0	
9	0	0	0	0	0	508	515	508	31	0	
10	0	0	0	0	0	510	511	507	31	0	
11	0	0	0	0	0	505	509	508	31	0	
12	0	0	0	0	0	504	510	508	31	0	
13	0	0	0	0	0	504	508	507	31	0	
14	0	0	0	0	0	504	510	506	31	0	
15	0	0	0	0	0	505	512	507	31	0	
0	0	0	0	0	1	507	513	509	31	0	
1	0	0	0	0	0	509	511	510	31	0	
2	0	0	0	0	0	507	513	511	31	0	
3	0	0	0	0	0	507	513	511	31	0	
4	0	0	0	0	0	504	512	511	31	0	
5	0	0	0	0	0	504	510	509	31	0	
6	0	0	0	0	0	505	511	510	31	0	
7	0	0	0	0	0	506	515	508	31	0	
8	0	0	0	0	1	504	511	510	32	0	
9	0	0	0	0	0	505	510	508	31	0	
10	0	0	0	0	0	505	509	510	31	0	
11	0	0	0	0	0	506	512	510	31	0	
12	0	0	0	0	0	507	514	508	31	0	
13	0	0	0	0	0	506	513	508	31	0	
14	0	0	0	0	0	504	511	508	32	0	
15	0	0	0	0	0	504	511	507	31	0	
0	0	0	0	0	1	507	511	505	31	0	
1	0	0	0	0	0	505	510	511	32	0	
2	0	0	0	0	0	504	511	511	32	0	
3	0	0	0	0	0	506	518	512	32	0	
4	0	0	0	0	0	504	519	510	31	0	
5	0	0	0	0	0	505	520	511	31	0	
6	0	0	0	0	0	503	515	509	31	0	
7	0	0	0	0	0	504	511	506	31	0	
8	0	0	0	0	1	503	508	509	31	0	
9	0	0	0	0	0	503	507	509	31	0	
10	0	0	0	0	0	506	506	509	31	0	
11	0	0	0	0	0	504	508	508	31	0	
12	0	0	0	0	0	505	510	507	31	0	
13	0	0	0	0	0	505	513	507	31	0	
14	0	0	0	0	0	502	512	511	32	0	
15	0	0	0	0	0	504	511	510	32	0	
0	0	0	0	0	1	504	514	512	31	0	
1	0	0	0	0	0	504	515	512	31	0	
2	0	0	0	0	0	504	513	509	31	0	
3	0	0	0	0	0	503	512	510	31	0	
4	0	0	0	0	0	505	511	510	31	0	
5	0	0	0	0	0	507	512	510	32	0	
6	0	0	0	0	0	508	516	508	31	0	
7	0	0	0	0	0	504	514	509	31	0	
8	0	0	0	0	1	508	512	510	31	0	
9	0	0	0	0	0	505	515	509	31	0	
10	0	0	0	0	0	505	513	509	31	0	
11	0	0	0	0	0	505	512	511	31	0	
12	0	0	0	0	0	504	513	511	31	0	
13	0	0	0	0	0	504	511	509	32	0	
14	0	0	0	0	0	505	510	509	32	0	
15	0	0	0	0	0	506	511	508	31	0	
0	0	0	0	0	1	508	510	508	31	0	
1	0	0	0	0	0	504	508	508	31	0	
2	0	0	0	0	0	505	510	509	31	0	
3	0	0	0	0	0	505	511	509	31	0	
4	0	0	0	0	0	508	513	508	31	0	
5	0	0	0	0	0	508	514	509	31	0	
6	0	0	0	0	0	505	515	508	31	0	
7	0	0	0	0	0	504	515	510	31	0	
8	0	0	0	0	1	503	513	512	31	0	
9	0	0	0	0	0	504	514	512	31	0	
10	0	0	0	0	0	504	511	509	31	0	
11	0	0	0	0	0	506	513	509	31	0	
12	0	0	0	0	0	505	513	508	31	0	
13	0	0	0	0	0	505	512	507	31	0	
14	0	0	0	0	0	504	513	510	31	0	
15	0	0	0	0	0	505	510	508	31	0	
0	0	0	0	0	1	507	509	510	32	0	
1	0	0	0	0	0	506	510	507	31	0	
2	0	0	0	0	0	508	511	506	31	0	
3	0	0	0	0	0	508	512	509	31	0	
4	0	0	0	0	0	505	511	511	31	0	
5	0	0	0	0	0	504	511	512	31	0	
6	0	0	0	0	0	504	510	511	31	0	
7	0	0	0	0	0	502	511	510	31	0	
8	0	0	0	0	1	503	511	511	31	0	
9	0	0	0	0	0	505	511	511	31	0	
10	0	0	0	0	0	504	511	510	32	0	
11	0	0	0	0	0	504	511	511	31	0	
12	0	0	0	0	0	505	512	510	31	0	
13	0	0	0	0	0	503	511	510	31	0	
14	0	0	0	0	0	503	510	508	31	0	
15	0	0	0	0	0	504	514	505	31	0	
0	0	0	0	0	1	507	516	508	31	0	
1	0	0	0	0	0	505	517	509	31	0	
2	0	0	0	0	0	504	519	508	31	0	
3	0	0	0	0	0	506	512	506	31	0	
4	0	0	0	0	0	508	513	508	31	0	
5	0	0	0	0	0	507	511	510	31	0	
6	0	0	0	0	0	508	511	513	31	0	
7	0	0	0	0	0	505	513	512	32	0	
8	0	0	0	0	1	504	510	511	31	0	
9	0	0	0	0	0	505	511	511	31	0	
10	0	0	0	0	0	504	513	508	32	0	
11	0	0	0	0	0	503	511	508	31	0	
12	0	0	0	0	0	506	512	508	31	0	
13	0	0	0	0	0	505	511	507	31	0	
14	0	0	0	0	0	510	512	504	31	0	
15	0	0	0	0	0	508	510	504	31	0	
0	0	0	0	0	1	505	514	509	31	0	
1	0	0	0	0	0	508	515	508	31	0	
2	0	0	0	0	0	506	515	508	31	0	
3	0	0	0	0	0	504	512	512	31	0	
4	0	0	0	0	0	507	514	510	32	0	
5	0	0	0	0	0	504	511	508	31	0	
6	0	0	0	0	0	504	509	511	32	0	
7	0	0	0	0	0	500	511	514	32	0	
8	0	0	0	0	1	502	510	513	31	0	
9	0	0	0	0	0	502	508	511	31	0	
10	0	0	0	0	0	502	508	510	31	0	
11	0	0	0	0	0	504	508	510	31	0	
12	0	0	0	0	0	505	509	508	31	0	
13	0	0	0	0	0	504	512	507	31	0	
14	0	0	0	0	0	507	512	511	32	0	
15	0	0	0	0	0	506	513	508	31	0	
0	0	0	0	0	1	507	512	508	31	0	
1	0	0	0	0	0	507	515	508	31	0	
2	0	0	0	0	0	507	515	508	31	0	
3	0	0	0	0	0	508	515	507	31	0	
4	0	0	0	0	0	510	512	508	31	0	
5	0	0	0	0	0	508	512	510	31	0	
6	0	0	0	0	0	508	515	509	31	0	
7	0	0	0	0	0	505	515	511	31	0	
8	0	0	0	0	1	503	515	510	31	0	
9	0	0	0	0	0	504	514	512	31	0	
10	0	0	0	0	0	505	513	511	32	0	
11	0	0	0	0	0	505	512	511	31	0	
12	0	0	0	0	0	505	511	507	31	0	
13	0	0	0	0	0	505	512	505	31	0	
14	0	0	0	0	0	504	514	509	31	0	
15	0	0	0	0	0	504	509	508	31	0	
0	0	0	0	0	1	505	510	506	31	0	
1	0	0	0	0	0	503	511	509	31	0	
2	0	0	0	0	0	502	509	508	31	0	
3	0	0	0	0	0	503	512	510	31	0	
4	0	0	0	0	0	504	510	510	31	0	
5	0	0	0	0	0	505	512	511	31	0	
6	0	0	0	0	0	506	514	509	32	0	
7	0	0	0	0	0	508	512	509	31	0	
8	0	0	0	0	1	508	511	510	31	0	
9	0	0	0	0	0	505	512	509	31	0	
10	0	0	0	0	0	509	512	507	31	0	
11	0	0	0	0	0	508	513	509	31	0	
12	0	0	0	0	0	505	512	512	31	0	
13	0	0	0	0	0	504	514	511	31	0	
14	0	0	0	0	0	504	514	511	31	0	
15	0	0	0	0	0	504	511	510	31	0	
0	0	0	0	0	1	505	511	510	31	0	
1	0	0	0	0	0	505	510	507	31	0	
2	0	0	0	0	0	504	510	507	31	0	
3	0	0	0	0	0	504	510	510	31	0	
4	0	0	0	0	0	500	510	508	31	0	
5	0	0	0	0	0	504	512	509	31	0	
6	0	0	0	0	0	505	510	510	31	0	
7	0	0	0	0	0	504	513	511	32	0	
8	0	0	0	0	1	507	513	509	31	0	
9	0	0	0	0	0	509	517	505	31	0	
10	0	0	0	0	0	510	518	507	31	0	
11	0	0	0	0	0	508	518	508	31	0	
12	0	0	0	0	0	508	512	510	31	0	
13	0	0	0	0	0	506	511	508	31	0	
14	0	0	0	0	0	503	510	512	31	0	
15	0	0	0	0	0	505	510	511	31	0	
0	0	0	0	0	1	504	509	511	31	0	
1	0	0	0	0	0	505	512	509	31	0	
2	0	0	0	0	0	504	514	509	31	0	
3	0	0	0	0	0	505	513	507	31	0	
4	0	0	0	0	0	505	512	509	31	0	
5	0	0	0	0	0	504	511	508	31	0	
6	0	0	0	0	0	505	512	510	31	0	
7	0	0	0	0	0	508	513	507	31	0	
8	0	0	0	0	1	505	510	509	31	0	
9	0	0	0	0	0	503	510	509	31	0	
10	0	0	0	0	0	505	511	510	31	0	
11	0	0	0	0	0	507	511	510	31	0	
12	0	0	0	0	0	506	512	510	31	0	
13	0	0	0	0	0	502	510	510	31	0	
14	0	0	0	0	0	504	511	512	32	0	
15	0	0	0	0	0	501	511	512	31	0	
0	0	0	0	0	1	502	513	512	31	0	
1	0	0	0	0	0	503	513	512	31	0	
2	0	0	0	0	0	508	516	510	31	0	
3	0	0	0	0	0	509	515	507	31	0	
4	0	0	0	0	0	511	512	503	31	0	
5	0	0	0	0	0	508	511	503	31	0	
6	0	0	0	0	0	504	511	507	31	0	
7	0	0	0	0	0	500	508	511	31	0	
8	0	0	0	0	1	499	508	513	31	0	
9	0	0	0	0	0	501	508	513	32	0	
10	0	0	0	0	0	503	510	513	32	0	
11	0	0	0	0	0	503	511	511	31	0	
12	0	0	0	0	0	502	512	509	32	0	
13	0	0	0	0	0	504	511	512	32	0	
14	0	0	0	0	0	506	511	510	31	0	
15	0	0	0	0	0	508	513	505	31	0	
0	0	0	0	0	1	506	516	505	31	0	
1	0	0	0	0	0	509	516	505	31	0	
2	0	0	0	0	0	508	517	510	31	0	
3	0	0	0	0	0	504	516	510	31	0	
4	0	0	0	0	0	504	518	511	31	0	
5	0	0	0	0	0	509	515	508	31	0	
6	0	0	0	0	0	508	513	508	31	0	
7	0	0	0	0	0	510	515	504	31	0	
8	0	0	0	0	0	511	514	504	31	0	
9	0	0	0	0	0	506	512	505	31	0	
10	0	0	0	0	0	502	510	507	31	0	
11	0	0	0	0	0	499	507	512	31	0	
12	0	0	0	0	0	502	508	515	31	0	
13	0	0	0	0	0	503	508	512	32	0	
14	0	0	0	0	0	503	507	511	32	0	
15	0	0	0	0	0	505	513	510	31	0	
0	0	0	0	0	1	506	512	509	31	0	
1	0	0	0	0	0	503	513	510	31	0	
2	0	0	0	0	0	503	512	511	31	0	
3	0	0	0	0	0	503	512	511	31	0	
4	0	0	0	0	0	504	514	507	31	0	
5	0	0	0	0	0	504	512	510	31	0	
6	0	0	0	0	0	507	513	508	31	0	
7	0	0	0	0	0	508	512	508	31	0	
8	0	0	0	0	1	509	511	506	31	0	
9	0	0	0	0	0	508	514	507	31	0	
10	0	0	0	0	0	507	515	512	31	0	
11	0	0	0	0	0	505	513	508	31	0	
12	0	0	0	0	0	505	511	509	31	0	
13	0	0	0	0	0	503	513	509	31	0	
14	0	0	0	0	0	503	509	511	31	0	
15	0	0	0	0	0	502	508	512	31	0	
0	0	0	0	0	1	500	513	513	31	0	
1	0	0	0	0	0	504	512	509	31	0	
2	0	0	0	0	0	501	512	508	31	0	
3	0	0	0	0	0	503	511	512	31	0	
4	0	0	0	0	0	505	510	509	31	0	
5	0	0	0	0	0	505	508	510	32	0	
6	0	0	0	0	0	505	511	508	31	0	
7	0	0	0	0	0	507	513	510	31	0	
8	0	0	0	0	1	508	515	507	31	0	
9	0	0	0	0	0	507	515	505	31	0	
10	0	0	0	0	0	506	514	508	31	0	
11	0	0	0	0	0	507	514	507	31	0	
12	0	0	0	0	0	505	512	510	31	0	
13	0	0	0	0	0	507	513	510	31	0	
14	0	0	0	0	0	504	514	509	31	0	
15	0	0	0	0	0	506	513	508	31	0	
0	0	0	0	0	1	507	512	508	31	0	
1	0	0	0	0	0	509	511	507	31	0	
2	0	0	0	0	0	504	511	511	31	0	
3	0	0	0	0	0	500	511	513	31	0	
4	0	0	0	0	0	503	510	513	31	0	
5	0	0	0	0	0	503	508	510	31	0	
6	0	0	0	0	0	503	510	510	32	0	
7	0	0	0	0	0	505	513	511	31	0	
8	0	0	0	0	1	503	513	513	31	0	
9	0	0	0	0	0	502	510	512	31	0	
10	0	0	0	0	0	507	514	508	31	0	
11	0	0	0	0	0	506	513	505	31	0	
12	0	0	0	0	0	510	510	504	31	0	
13	0	0	0	0	0	511	508	504	31	0	
14	0	0	0	0	0	508	510	507	31	0	
15	0	0	0	0	0	503	512	510	31	0	
0	0	0	0	0	1	503	511	513	31	0	
1	0	0	0	0	0	504	512	512	31	0	
2	0	0	0	0	0	507	509	510	31	0	
3	0	0	0	0	0	506	510	510	31	0	
4	0	0	0	0	0	504	514	511	31	0	
5	0	0	0	0	0	507	518	511	31	0	
6	0	0	0	0	0	503	521	511	31	0	
7	0	0	0	0	0	503	515	506	31	0	
8	0	0	0	0	1	504	509	505	31	0	
9	0	0	0	0	0	504	507	506	31	0	
10	0	0	0	0	0	505	507	508	32	0	
11	0	0	0	0	0	502	510	512	31	0	
12	0	0	0	0	0	504	510	509	31	0	
13	0	0	0	0	0	505	513	508	31	0	
14	0	0	0	0	0	504	515	509	31	0	
15	0	0	0	0	0	508	513	509	31	0	
0	0	0	0	0	1	506	515	509	31	0	
1	0	0	0	0	0	504	514	513	31	0	
2	0	0	0	0	0	503	515	515	31	0	
3	0	0	0	0	0	503	513	515	31	0	
4	0	0	0	0	0	505	515	510	31	0	
5	0	0	0	0	0	508	515	507	31	0	
6	0	0	0	0	0	510	510	507	31	0	
7	0	0	0	0	0	511	507	507	31	0	
8	0	0	0	0	1	511	508	504	32	0	
9	0	0	0	0	0	510	513	504	31	0	
10	0	0	0	0	0	507	514	504	31	0	
11	0	0	0	0	0	504	512	508	31	0	
12	0	0	0	0	0	500	512	512	31	0	
13	0	0	0	0	0	500	512	511	31	0	
14	0	0	0	0	0	504	513	511	31	0	
15	0	0	0	0	0	507	518	511	32	0	
0	0	0	0	0	1	506	516	512	31	0	
1	0	0	0	0	0	508	514	510	31	0	
2	0	0	0	0	0	506	510	509	31	0	
3	0	0	0	0	0	503	508	513	31	0	
4	0	0	0	0	0	500	505	516	32	0	
5	0	0	0	0	0	503	506	511	32	0	
6	0	0	0	0	0	504	508	510	32	0	
7	0	0	0	0	0	501	510	510	31	0	
8	0	0	0	0	1	506	513	510	31	0	
9	0	0	0	0	0	504	515	508	31	0	
10	0	0	0	0	0	504	513	506	31	0	
11	0	0	0	0	0	506	512	504	31	0	
12	0	0	0	0	0	504	515	508	31	0	
13	0	0	0	0	0	505	515	510	31	0	
14	0	0	0	0	0	504	515	511	31	0	
15	0	0	0	0	0	505	511	508	31	0	
0	0	0	0	0	1	505	508	509	31	0	
1	0	0	0	0	0	506	511	512	32	0	
2	0	0	0	0	0	507	511	510	31	0	
3	0	0	0	0	0	507	511	505	31	0	
4	0	0	0	0	0	508	509	506	31	0	
5	0	0	0	0	0	507	515	510	31	0	
6	0	0	0	0	0	504	516	509	31	0	
7	0	0	0	0	0	502	518	511	31	0	
8	0	0	0	0	1	503	516	511	31	0	
9	0	0	0	0	0	505	513	511	31	0	
10	0	0	0	0	0	507	505	507	31	0	
11	0	0	0	0	0	507	504	507	32	0	
12	0	0	0	0	0	505	506	507	32	0	
13	0	0	0	0	0	505	508	508	32	0	
14	0	0	0	0	0	506	510	508	31	0	
15	0	0	0	0	0	501	511	511	31	0	
0	0	0	0	0	1	502	513	511	31	0	
1	0	0	0	0	0	507	516	511	31	0	
2	0	0	0	0	0	508	517	510	31	0	
3	0	0	0	0	0	505	514	510	31	0	
4	0	0	0	0	0	504	514	511	31	0	
5	0	0	0	0	0	503	513	509	32	0	
6	0	0	0	0	0	507	514	509	31	0	
7	0	0	0	0	0	507	513	511	32	0	
8	0	0	0	0	1	508	514	508	31	0	
9	0	0	0	0	0	508	515	510	31	0	
10	0	0	0	0	0	506	512	508	31	0	
11	0	0	0	0	0	504	508	505	31	0	
12	0	0	0	0	0	502	508	507	31	0	
13	0	0	0	0	0	502	509	507	31	0	
14	0	0	0	0	0	500	510	510	31	0	
15	0	0	0	0	0	502	510	510	31	0	
0	0	0	0	0	1	500	509	512	31	0	
1	0	0	0	0	0	504	511	513	32	0	
2	0	0	0	0	0	504	509	513	32	0	
3	0	0	0	0	0	503	515	513	31	0	
4	0	0	0	0	0	504	517	513	31	0	
5	0	0	0	0	0	506	519	508	31	0	
6	0	0	0	0	0	505	515	508	31	0	
7	0	0	0	0	0	508	508	507	31	0	
8	0	0	0	0	1	508	511	505	31	0	
9	0	0	0	0	0	505	516	508	31	0	
10	0	0	0	0	0	503	514	512	31	0	
11	0	0	0	0	0	505	518	510	31	0	
12	0	0	0	0	0	508	517	503	31	0	
13	0	0	0	0	0	511	511	501	31	0	
14	0	0	0	0	0	508	504	503	32	0	
15	0	0	0	0	0	507	504	505	32	0	
0	0	0	0	0	1	506	507	508	31	0	
1	0	0	0	0	0	506	508	509	31	0	
2	0	0	0	0	0	505	510	509	31	0	
3	0	0	0	0	0	504	510	509	31	0	
4	0	0	0	0	0	505	513	510	31	0	
5	0	0	0	0	0	504	513	512	31	0	
6	0	0	0	0	0	504	513	515	31	0	
7	0	0	0	0	0	504	518	515	31	0	
8	0	0	0	0	1	505	515	514	32	0	
9	0	0	0	0	0	505	513	513	32	0	
10	0	0	0	0	0	508	513	511	31	0	
11	0	0	0	0	0	506	511	510	32	0	
12	0	0	0	0	0	504	513	508	32	0	
13	0	0	0	0	0	506	513	505	31	0	
14	0	0	0	0	0	506	512	505	31	0	
15	0	0	0	0	0	507	512	505	31	0	
0	0	0	0	0	1	505	512	507	31	0	
1	0	0	0	0	0	504	510	511	31	0	
2	0	0	0	0	0	502	508	513	32	0	
3	0	0	0	0	0	499	508	513	32	0	
4	0	0	0	0	0	500	510	513	32	0	
5	0	0	0	0	0	504	510	512	31	0	
6	0	0	0	0	0	505	512	510	31	0	
7	0	0	0	0	0	505	512	508	31	0	
8	0	0	0	0	1	505	516	510	31	0	
9	0	0	0	0	0	508	516	510	31	0	
10	0	0	0	0	0	510	512	507	31	0	
11	0	0	0	0	0	511	512	505	31	0	
12	0	0	0	0	0	510	513	504	31	0	
13	0	0	0	0	0	503	513	507	31	0	
14	0	0	0	0	0	503	518	508	31	0	
15	0	0	0	0	0	502	515	508	31	0	
0	0	0	0	0	1	503	508	509	32	0	
1	0	0	0	0	0	504	510	513	32	0	
2	0	0	0	0	0	507	512	510	31	0	
3	0	0	0	0	0	509	513	510	31	0	
4	0	0	0	0	0	507	513	509	31	0	
5	0	0	0	0	0	508	511	508	31	0	
6	0	0	0	0	0	510	507	507	32	0	
7	0	0	0	0	0	506	509	508	32	0	
8	0	0	0	0	1	505	511	507	32	0	
9	0	0	0	0	0	503	513	509	31	0	
10	0	0	0	0	0	496	519	514	31	0	
11	0	0	0	0	0	502	514	511	31	0	
12	0	0	0	0	0	505	513	508	31	0	
13	0	0	0	0	0	508	514	508	31	0	
14	0	0	0	0	0	513	508	503	31	0	
15	0	0	0	0	0	515	508	499	31	0	
0	0	0	0	0	1	504	510	507	31	0	
1	0	0	0	0	0	495	512	513	31	0	
2	0	0	0	0	0	494	512	515	31	0	
3	0	0	0	0	0	497	512	513	31	0	
4	0	0	0	0	0	502	514	511	32	0	
5	0	0	0	0	0	504	510	511	32	0	
6	0	0	0	0	0	510	517	510	31	0	
7	0	0	0	0	0	507	519	510	31	0	
8	0	0	0	0	0	505	518	510	31	0	
9	0	0	0	0	0	504	513	509	31	0	
10	0	0	0	0	0	504	507	507	31	0	
11	0	0	0	0	0	504	507	509	32	0	
12	0	0	0	0	0	504	506	511	32	0	
13	0	0	0	0	0	504	508	512	32	0	
14	0	0	0	0	0	506	511	513	31	0	
15	0	0	0	0	0	508	513	510	32	0	
0	0	0	0	0	0	512	513	506	32	0	
1	0	0	0	0	0	510	514	506	31	0	
2	0	0	0	0	0	505	512	506	31	0	
3	0	0	0	0	0	499	510	509	31	0	
4	0	0	0	0	0	495	508	515	32	0	
5	0	0	0	0	0	497	508	515	32	0	
6	0	0	0	0	0	504	513	513	31	0	
7	0	0	0	0	0	510	511	508	31	0	
8	0	0	0	0	0	512	514	506	31	0	
9	0	0	0	0	0	510	516	505	31	0	
10	0	0	0	0	0	508	517	505	31	0	
11	0	0	0	0	0	507	514	506	31	0	
12	0	0	0	0	0	505	512	507	31	0	
13	0	0	0	0	0	504	513	510	31	0	
14	0	0	0	0	0	506	511	509	31	0	
15	0	0	0	0	0	511	511	507	31	0	
0	0	0	0	0	1	513	513	507	31	0	
1	0	0	0	0	0	508	515	508	31	0	
2	0	0	0	0	0	505	512	508	31	0	
3	0	0	0	0	0	504	518	506	31	0	
4	0	0	0	0	0	503	516	510	31	0	
5	0	0	0	0	0	501	516	515	31	0	
6	0	0	0	0	0	499	511	515	31	0	
7	0	0	0	0	0	500	508	510	31	0	
8	0	0	0	0	1	500	509	508	31	0	
9	0	0	0	0	0	499	507	512	32	0	
10	0	0	0	0	0	499	508	517	32	0	
11	0	0	0	0	0	504	517	511	31	0	
12	0	0	0	0	0	505	515	510	31	0	
13	0	0	0	0	0	508	508	507	31	0	
14	0	0	0	0	0	512	506	505	32	0	
15	0	0	0	0	0	509	511	506	32	0	
0	0	0	0	0	1	505	516	507	31	0	
1	0	0	0	0	0	504	511	509	31	0	
2	0	0	0	0	0	505	506	507	31	0	
3	0	0	0	0	0	503	508	509	31	0	
4	0	0	0	0	0	503	511	510	31	0	
5	0	0	0	0	0	502	515	511	31	0	
6	0	0	0	0	0	505	514	509	31	0	
7	0	0	0	0	0	511	510	509	31	0	
8	0	0	0	0	1	510	515	509	31	0	
9	0	0	0	0	0	506	512	512	31	0	
10	0	0	0	0	0	505	517	509	31	0	
11	0	0	0	0	0	504	515	510	31	0	
12	0	0	0	0	0	506	516	509	31	0	
13	0	0	0	0	0	505	515	509	31	0	
14	0	0	0	0	0	508	515	506	31	0	
15	0	0	0	0	0	508	515	509	31	0	
0	0	0	0	0	1	507	511	505	31	0	
1	0	0	0	0	0	506	507	506	31	0	
2	0	0	0	0	0	504	509	513	31	0	
3	0	0	0	0	0	503	513	509	31	0	
4	0	0	0	0	0	504	515	508	31	0	
5	0	0	0	0	0	508	513	507	31	0	
6	0	0	0	0	0	501	507	510	31	0	
7	0	0	0	0	0	504	506	511	32	0	
8	0	0	0	0	1	505	504	512	32	0	
9	0	0	0	0	0	506	505	510	32	0	
10	0	0	0	0	0	504	507	512	32	0	
11	0	0	0	0	0	501	515	515	32	0	
12	0	0	0	0	0	501	517	514	31	0	
13	0	0	0	0	0	506	517	509	31	0	
14	0	0	0	0	0	509	511	504	31	0	
15	0	0	0	0	0	514	513	501	31	0	
0	0	0	0	0	1	506	514	509	31	0	
1	0	0	0	0	0	498	515	511	31	0	
2	0	0	0	0	0	498	519	514	31	0	
3	0	0	0	0	0	506	507	507	31	0	
4	0	0	0	0	0	507	505	505	31	0	
5	0	0	0	0	0	506	502	506	32	0	
6	0	0	0	0	0	499	506	512	32	0	
7	0	0	0	0	0	501	515	515	31	0	
8	0	0	0	0	1	501	518	513	31	0	
9	0	0	0	0	0	503	522	513	32	0	
10	0	0	0	0	0	505	518	511	31	0	
11	0	0	0	0	0	509	518	508	31	0	
12	0	0	0	0	0	511	512	504	31	0	
13	0	0	0	0	0	508	507	506	31	0	
14	0	0	0	0	0	503	511	513	31	0	
15	0	0	0	0	0	503	515	510	31	0	
0	0	0	0	0	1	503	514	508	31	0	
1	0	0	0	0	0	506	514	505	31	0	
2	0	0	0	0	0	509	507	508	32	0	
3	0	0	0	0	0	505	508	512	31	0	
4	0	0	0	0	0	504	514	512	31	0	
5	0	0	0	0	0	506	515	512	31	0	
6	0	0	0	0	0	504	508	510	32	0	
7	0	0	0	0	0	508	504	508	32	0	
8	0	0	0	0	1	512	510	507	31	0	
9	0	0	0	0	0	511	515	507	32	0	
10	0	0	0	0	0	508	515	512	32	0	
11	0	0	0	0	0	502	513	514	31	0	
12	0	0	0	0	0	502	514	511	31	0	
13	0	0	0	0	0	504	512	508	31	0	
14	0	0	0	0	0	503	508	506	32	0	
15	0	0	0	0	0	505	510	504	31	0	
0	0	0	0	0	1	505	511	504	31	0	
1	0	0	0	0	0	501	510	508	31	0	
2	0	0	0	0	0	503	512	505	31	0	
3	0	0	0	0	0	504	516	507	31	0	
4	0	0	0	0	0	505	517	507	31	0	
5	0	0	0	0	0	504	512	507	31	0	
6	0	0	0	0	0	507	511	508	31	0	
7	0	0	0	0	0	513	510	509	31	0	
8	0	0	0	0	1	507	507	511	32	0	
9	0	0	0	0	0	504	509	512	32	0	
10	0	0	0	0	0	502	511	513	31	0	
11	0	0	0	0	0	501	513	512	31	0	
12	0	0	0	0	0	504	515	510	31	0	
13	0	0	0	0	0	504	518	510	31	0	
14	0	0	0	0	0	505	515	509	31	0	
15	0	0	0	0	0	506	509	513	31	0	
0	0	0	0	0	1	506	506	510	31	0	
1	0	0	0	0	0	505	512	506	31	0	
2	0	0	0	0	0	504	509	508	32	0	
3	0	0	0	0	0	503	508	510	32	0	
4	0	0	0	0	0	504	509	511	32	0	
5	0	0	0	0	0	506	508	507	31	0	
6	0	0	0	0	0	504	511	508	31	0	
7	0	0	0	0	0	507	512	507	31	0	
8	0	0	0	0	1	505	515	509	31	0	
9	0	0	0	0	0	503	519	515	31	0	
10	0	0	0	0	0	505	516	512	31	0	
11	0	0	0	0	0	505	519	513	31	0	
12	0	0	0	0	0	508	518	509	31	0	
13	0	0	0	0	0	510	519	510	31	0	
14	0	0	0	0	0	505	515	511	31	0	
15	0	0	0	0	0	506	515	510	31	0	
0	0	0	0	0	1	506	512	509	31	0	
1	0	0	0	0	0	507	508	506	32	0	
2	0	0	0	0	0	507	511	510	32	0	
3	0	0	0	0	0	505	511	508	31	0	
4	0	0	0	0	0	509	515	503	31	0	
5	0	0	0	0	0	508	506	506	31	0	
6	0	0	0	0	0	503	503	509	32	0	
7	0	0	0	0	0	499	505	514	32	0	
8	0	0	0	0	1	500	508	512	32	0	
9	0	0	0	0	0	497	513	513	31	0	
10	0	0	0	0	0	500	513	510	31	0	
11	0	0	0	0	0	498	510	512	31	0	
12	0	0	0	0	0	500	510	513	32	0	
13	0	0	0	0	0	504	511	511	32	0	
14	0	0	0	0	0	507	512	509	31	0	
15	0	0	0	0	0	507	513	508	31	0	
0	0	0	0	0	1	504	511	510	31	0	
1	0	0	0	0	0	505	512	509	31	0	
2	0	0	0	0	0	512	513	507	31	0	
3	0	0	0	0	0	512	514	505	31	0	
4	0	0	0	0	0	508	515	508	31	0	
5	0	0	0	0	0	508	518	507	31	0	
6	0	0	0	0	0	509	513	507	31	0	
7	0	0	0	0	0	510	511	509	31	0	
8	0	0	0	0	1	507	512	507	31	0	
9	0	0	0	0	0	506	514	508	31	0	
10	0	0	0	0	0	503	514	510	31	0	
11	0	0	0	0	0	507	513	509	31	0	
12	0	0	0	0	0	505	510	511	31	0	
13	0	0	0	0	0	502	508	510	32	0	
14	0	0	0	0	0	501	508	512	32	0	
15	0	0	0	0	0	500	510	512	31	0	
0	0	0	0	0	1	505	514	511	31	0	
1	0	0	0	0	0	508	513	510	31	0	
2	0	0	0	0	0	507	512	507	31	0	
3	0	0	0	0	0	507	512	508	31	0	
4	0	0	0	0	0	504	513	507	31	0	
5	0	0	0	0	0	507	512	513	31	0	
6	0	0	0	0	0	506	514	511	31	0	
7	0	0	0	0	0	504	512	507	31	0	
8	0	0	0	0	1	502	510	510	31	0	
9	0	0	0	0	0	500	512	510	31	0	
10	0	0	0	0	0	500	513	507	31	0	
11	0	0	0	0	0	505	512	508	31	0	
12	0	0	0	0	0	507	512	508	31	0	
13	0	0	0	0	0	505	511	512	31	0	
14	0	0	0	0	0	504	510	512	31	0	
15	0	0	0	0	0	504	510	511	32	0	
0	0	0	0	0	1	506	512	510	32	0	
1	0	0	0	0	0	508	513	508	31	0	
2	0	0	0	0	0	508	515	509	31	0	
3	0	0	0	0	0	507	514	507	31	0	
4	0	0	0	0	0	505	509	504	31	0	
5	0	0	0	0	0	506	508	507	31	0	
6	0	0	0	0	0	504	514	511	31	0	
7	0	0	0	0	0	502	514	510	31	0	
8	0	0	0	0	1	501	512	507	31	0	
9	0	0	0	0	0	503	508	508	32	0	
10	0	0	0	0	0	503	509	509	32	0	
11	0	0	0	0	0	506	511	511	31	0	
12	0	0	0	0	0	507	514	509	31	0	
13	0	0	0	0	0	508	512	508	31	0	
14	0	0	0	0	0	508	514	508	31	0	
15	0	0	0	0	0	507	511	510	31	0	
0	0	0	0	0	1	506	511	511	31	0	
1	0	0	0	0	0	505	513	509	31	0	
2	0	0	0	0	0	505	512	511	31	0	
3	0	0	0	0	0	502	511	513	32	0	
4	0	0	0	0	0	500	510	511	32	0	
5	0	0	0	0	0	506	512	511	31	0	
6	0	0	0	0	0	507	513	508	31	0	
7	0	0	0	0	0	507	512	505	31	0	
8	0	0	0	0	1	504	512	507	31	0	
9	0	0	0	0	0	499	511	508	31	0	
10	0	0	0	0	0	500	512	511	31	0	
11	0	0	0	0	0	504	515	508	31	0	
12	0	0	0	0	0	505	516	508	31	0	
13	0	0	0	0	0	507	515	511	31	0	
14	0	0	0	0	0	506	512	513	31	0	
15	0	0	0	0	0	507	514	510	31	0	
0	0	0	0	0	0	507	515	505	31	0	
1	0	0	0	0	0	505	512	507	31	0	
2	0	0	0	0	0	507	508	508	32	0	
3	0	0	0	0	0	504	508	512	32	0	
4	0	0	0	0	0	506	509	512	31	0	
5	0	0	0	0	0	507	510	511	31	0	
6	0	0	0	0	0	504	510	510	31	0	
7	0	0	0	0	0	503	511	510	31	0	
8	0	0	0	0	0	510	509	505	31	0	
9	0	0	0	0	0	507	510	508	31	0	
10	0	0	0	0	0	505	516	506	31	0	
11	0	0	0	0	0	508	514	507	31	0	
12	0	0	0	0	0	505	513	509	31	0	
13	0	0	0	0	0	502	512	510	31	0	
14	0	0	0	0	0	504	514	508	31	0	
15	0	0	0	0	0	505	512	510	31	0	
0	0	0	0	0	0	504	508	513	31	0	
1	0	0	0	0	0	504	510	513	32	0	
2	0	0	0	0	0	500	511	512	32	0	
3	0	0	0	0	0	503	512	511	31	0	
4	0	0	0	0	0	504	513	508	31	0	
5	0	0	0	0	0	506	510	506	31	0	
6	0	0	0	0	0	508	512	507	31	0	
7	0	0	0	0	0	506	509	507	31	0	
8	0	0	0	0	1	505	508	507	32	0	
9	0	0	0	0	0	504	512	511	32	0	
10	0	0	0	0	0	504	512	509	31	0	
11	0	0	0	0	0	505	513	510	31	0	
12	0	0	0	0	0	501	513	510	31	0	
13	0	0	0	0	0	504	512	514	32	0	
14	0	0	0	0	0	505	515	513	31	0	
15	0	0	0	0	0	507	516	510	31	0	
0	0	0	0	0	1	508	512	509	31	0	
1	0	0	0	0	0	506	508	511	31	0	
2	0	0	0	0	0	504	513	510	31	0	
3	0	0	0	0	0	504	516	508	31	0	
4	0	0	0	0	0	507	516	509	31	0	
5	0	0	0	0	0	505	514	509	31	0	
6	0	0	0	0	0	503	517	510	31	0	
7	0	0	0	0	0	506	513	508	31	0	
8	0	0	0	0	1	507	508	505	31	0	
9	0	0	0	0	0	508	508	506	31	0	
10	0	0	0	0	0	507	507	509	31	0	
11	0	0	0	0	0	505	510	511	32	0	
12	0	0	0	0	0	506	511	509	32	0	
13	0	0	0	0	0	507	510	510	31	0	
14	0	0	0	0	0	507	513	507	31	0	
15	0	0	0	0	0	508	513	508	31	0	
0	0	0	0	0	1	508	514	508	31	0	
1	0	0	0	0	0	502	516	509	31	0	
2	0	0	0	0	0	499	513	509	31	0	
3	0	0	0	0	0	500	515	510	31	0	
4	0	0	0	0	0	501	511	509	31	0	
5	0	0	0	0	0	505	509	510	31	0	
6	0	0	0	0	0	504	508	509	31	0	
7	0	0	0	0	0	505	510	511	31	0	
8	0	0	0	0	1	504	511	511	32	0	
9	0	0	0	0	0	505	513	508	31	0	
10	0	0	0	0	0	505	515	507	31	0	
11	0	0	0	0	0	505	513	505	31	0	
12	0	0	0	0	0	504	511	508	31	0	
13	0	0	0	0	0	507	511	508	31	0	
14	0	0	0	0	0	511	512	505	31	0	
15	0	0	0	0	0	510	509	510	31	0	
0	0	0	0	0	1	505	510	510	32	0	
1	0	0	0	0	0	503	509	508	31	0	
2	0	0	0	0	0	502	511	511	31	0	
3	0	0	0	0	0	502	511	514	32	0	
4	0	0	0	0	0	503	514	514	31	0	
5	0	0	0	0	0	502	514	514	31	0	
6	0	0	0	0	0	505	514	512	31	0	
7	0	0	0	0	0	510	512	507	31	0	
8	0	0	0	0	1	507	510	508	32	0	
9	0	0	0	0	0	505	513	508	32	0	
10	0	0	0	0	0	505	515	505	31	0	
11	0	0	0	0	0	505	513	507	31	0	
12	0	0	0	0	0	505	513	509	31	0	
13	0	0	0	0	0	506	510	507	31	0	
14	0	0	0	0	0	505	513	508	31	0	
15	0	0	0	0	0	506	510	508	31	0	
0	0	0	0	0	1	505	511	510	31	0	
1	0	0	0	0	0	505	512	510	31	0	
2	0	0	0	0	0	504	513	511	31	0	
3	0	0	0	0	0	503	512	511	31	0	
4	0	0	0	0	0	501	511	511	31	0	
5	0	0	0	0	0	503	511	511	32	0	
6	0	0	0	0	0	507	514	511	31	0	
7	0	0	0	0	0	505	514	508	31	0	
8	0	0	0	0	1	508	514	510	31	0	
9	0	0	0	0	0	507	511	507	31	0	
10	0	0	0	0	0	505	509	511	31	0	
11	0	0	0	0	0	508	511	507	31	0	
12	0	0	0	0	0	509	514	506	31	0	
13	0	0	0	0	0	506	512	510	31	0	
14	0	0	0	0	0	504	512	507	31	0	
15	0	0	0	0	0	503	513	509	31	0	
0	0	0	0	0	1	503	512	512	31	0	
1	0	0	0	0	0	503	512	511	31	0	
2	0	0	0	0	0	501	513	510	31	0	
3	0	0	0	0	0	503	510	513	31	0	
4	0	0	0	0	0	502	508	511	31	0	
5	0	0	0	0	0	505	511	512	32	0	
6	0	0	0	0	0	503	512	512	31	0	
7	0	0	0	0	0	505	513	511	31	0	
8	0	0	0	0	1	507	513	508	31	0	
9	0	0	0	0	0	507	516	505	31	0	
10	0	0	0	0	0	508	518	506	31	0	
11	0	0	0	0	0	510	515	507	31	0	
12	0	0	0	0	0	510	514	506	31	0	
13	0	0	0	0	0	508	511	505	31	0	
14	0	0	0	0	0	507	512	508	31	0	
15	0	0	0	0	0	507	510	508	31	0	
0	0	0	0	0	1	507	508	509	31	0	
1	0	0	0	0	0	505	508	510	31	0	
2	0	0	0	0	0	502	510	511	31	0	
3	0	0	0	0	0	501	510	510	32	0	
4	0	0	0	0	0	501	508	511	31	0	
5	0	0	0	0	0	503	507	512	32	0	
6	0	0	0	0	0	504	510	512	32	0	
7	0	0	0	0	0	500	516	513	31	0	
8	0	0	0	0	1	501	516	509	31	0	
9	0	0	0	0	0	505	516	505	31	0	
10	0	0	0	0	0	507	510	507	31	0	
11	0	0	0	0	0	506	513	508	31	0	
12	0	0	0	0	0	508	513	509	31	0	
13	0	0	0	0	0	508	514	509	31	0	
14	0	0	0	0	0	510	511	507	31	0	
15	0	0	0	0	0	508	510	508	31	0	
0	0	0	0	0	1	505	510	513	32	0	
1	0	0	0	0	0	504	513	512	31	0	
2	0	0	0	0	0	506	514	508	31	0	
3	0	0	0	0	0	505	515	508	31	0	
4	0	0	0	0	0	505	511	508	31	0	
5	0	0	0	0	0	502	513	509	32	0	
6	0	0	0	0	0	501	515	510	31	0	
7	0	0	0	0	0	501	513	511	31	0	
8	0	0	0	0	1	502	511	509	31	0	
9	0	0	0	0	0	505	511	508	31	0	
10	0	0	0	0	0	505	510	509	31	0	
11	0	0	0	0	0	509	510	507	31	0	
12	0	0	0	0	0	510	509	506	31	0	
13	0	0	0	0	0	509	510	507	31	0	
14	0	0	0	0	0	508	513	508	31	0	
15	0	0	0	0	0	508	516	510	31	0	
0	0	0	0	0	1	506	515	512	31	0	
1	0	0	0	0	0	502	514	510	31	0	
2	0	0	0	0	0	502	513	512	31	0	
3	0	0	0	0	0	501	512	510	31	0	
4	0	0	0	0	0	504	507	511	31	0	
5	0	0	0	0	0	506	510	509	31	0	
6	0	0	0	0	0	503	510	506	31	0	
7	0	0	0	0	0	505	509	508	31	0	
8	0	0	0	0	1	503	511	509	31	0	
9	0	0	0	0	0	503	514	509	31	0	
10	0	0	0	0	0	503	510	510	31	0	
11	0	0	0	0	0	503	511	509	31	0	
12	0	0	0	0	0	505	510	507	31	0	
13	0	0	0	0	0	507	512	509	31	0	
14	0	0	0	0	0	507	511	511	32	0	
15	0	0	0	0	0	504	514	509	31	0	
0	0	0	0	0	1	504	515	511	31	0	
1	0	0	0	0	0	505	513	508	32	0	
2	0	0	0	0	0	507	511	508	31	0	
3	0	0	0	0	0	508	513	508	31	0	
4	0	0	0	0	0	507	510	508	31	0	
5	0	0	0	0	0	501	509	509	31	0	
6	0	0	0	0	0	503	509	510	32	0	
7	0	0	0	0	0	503	512	510	31	0	
8	0	0	0	0	1	505	511	509	31	0	
9	0	0	0	0	0	506	513	509	31	0	
10	0	0	0	0	0	506	513	508	31	0	
11	0	0	0	0	0	508	515	508	31	0	
12	0	0	0	0	0	508	515	508	31	0	
13	0	0	0	0	0	508	516	507	31	0	
14	0	0	0	0	0	508	516	508	31	0	
15	0	0	0	0	0	508	519	507	31	0	
0	0	0	0	0	1	505	512	506	31	0	
1	0	0	0	0	0	506	509	512	31	0	
2	0	0	0	0	0	506	509	511	31	0	
3	0	0	0	0	0	505	507	511	31	0	
4	0	0	0	0	0	505	506	509	32	0	
5	0	0	0	0	0	502	508	510	32	0	
6	0	0	0	0	0	500	512	512	31	0	
7	0	0	0	0	0	503	512	512	31	0	
8	0	0	0	0	1	502	512	512	31	0	
9	0	0	0	0	0	504	507	513	31	0	
10	0	0	0	0	0	504	511	509	31	0	
11	0	0	0	0	0	508	514	509	31	0	
12	0	0	0	0	0	508	515	507	31	0	
13	0	0	0	0	0	510	513	505	31	0	
14	0	0	0	0	0	508	512	505	31	0	
15	0	0	0	0	0	505	512	511	31	0	
0	0	0	0	0	1	508	513	510	31	0	
1	0	0	0	0	0	505	514	505	31	0	
2	0	0	0	0	0	501	514	507	31	0	
3	0	0	0	0	0	501	513	510	31	0	
4	0	0	0	0	0	502	515	512	31	0	
5	0	0	0	0	0	500	512	510	31	0	
6	0	0	0	0	0	504	511	510	31	0	
7	0	0	0	0	0	505	508	511	31	0	
8	0	0	0	0	1	504	510	511	31	0	
9	0	0	0	0	0	507	512	509	31	0	
10	0	0	0	0	0	503	512	509	31	0	
11	0	0	0	0	0	503	512	511	31	0	
12	0	0	0	0	0	504	513	509	31	0	
13	0	0	0	0	0	508	515	509	31	0	
14	0	0	0	0	0	510	513	506	31	0	
15	0	0	0	0	0	506	510	507	31	0	
0	0	0	0	0	1	507	510	508	31	0	
1	0	0	0	0	0	509	510	509	31	0	
2	0	0	0	0	0	505	511	512	31	0	
3	0	0	0	0	0	505	509	509	31	0	
4	0	0	0	0	0	506	513	508	31	0	
5	0	0	0	0	0	504	511	512	31	0	
6	0	0	0	0	0	503	512	512	31	0	
7	0	0	0	0	0	503	511	509	31	0	
8	0	0	0	0	1	504	509	508	31	0	
9	0	0	0	0	0	502	510	511	32	0	
10	0	0	0	0	0	502	508	515	32	0	
11	0	0	0	0	0	505	511	510	31	0	
12	0	0	0	0	0	504	512	508	31	0	
13	0	0	0	0	0	505	513	509	32	0	
14	0	0	0	0	0	505	516	507	31	0	
15	0	0	0	0	0	504	521	510	31	0	
0	0	0	0	0	0	505	519	510	31	0	
1	0	0	0	0	0	505	517	508	31	0	
2	0	0	0	0	0	505	514	505	31	0	
3	0	0	0	0	0	504	511	508	31	0	
4	0	0	0	0	0	503	509	509	31	0	
5	0	0	0	0	0	505	513	510	31	0	
6	0	0	0	0	0	506	514	511	31	0	
7	0	0	0	0	0	510	511	510	31	0	
8	0	0	0	0	0	510	512	509	32	0	
9	0	0	0	0	0	511	509	511	31	0	
10	0	0	0	0	0	505	510	508	31	0	
11	0	0	0	0	0	505	508	510	31	0	
12	0	0	0	0	0	504	505	512	32	0	
13	0	0	0	0	0	500	510	510	32	0	
14	0	0	0	0	0	503	513	510	31	0	
15	0	0	0	0	0	505	511	508	31	0	
0	0	0	0	0	1	510	515	508	31	0	
1	0	0	0	0	0	508	514	507	31	0	
2	0	0	0	0	0	507	518	510	31	0	
3	0	0	0	0	0	503	519	510	31	0	
4	0	0	0	0	0	500	516	509	31	0	
5	0	0	0	0	0	500	512	511	31	0	
6	0	0	0	0	0	499	508	511	32	0	
7	0	0	0	0	0	503	510	508	31	0	
8	0	0	0	0	1	503	510	507	31	0	
9	0	0	0	0	0	504	510	507	31	0	
10	0	0	0	0	0	504	512	510	31	0	
11	0	0	0	0	0	505	511	510	31	0	
12	0	0	0	0	0	507	512	510	31	0	
13	0	0	0	0	0	506	514	509	31	0	
14	0	0	0	0	0	508	514	509	31	0	
15	0	0	0	0	0	508	512	506	31	0	
0	0	0	0	0	1	507	509	508	31	0	
1	0	0	0	0	0	506	508	508	31	0	
2	0	0	0	0	0	507	511	511	31	0	
3	0	0	0	0	0	504	513	509	31	0	
4	0	0	0	0	0	504	511	510	32	0	
5	0	0	0	0	0	504	511	510	31	0	
6	0	0	0	0	0	503	509	508	31	0	
7	0	0	0	0	0	504	508	510	31	0	
8	0	0	0	0	1	509	512	510	31	0	
9	0	0	0	0	0	508	517	508	31	0	
10	0	0	0	0	0	504	518	511	31	0	
11	0	0	0	0	0	502	514	512	31	0	
12	0	0	0	0	0	502	513	512	31	0	
13	0	0	0	0	0	502	514	511	31	0	
14	0	0	0	0	0	503	510	511	31	0	
15	0	0	0	0	0	504	512	510	31	0	
0	0	0	0	0	1	505	511	508	31	0	
1	0	0	0	0	0	504	513	508	31	0	
2	0	0	0	0	0	504	508	508	31	0	
3	0	0	0	0	0	503	510	508	31	0	
4	0	0	0	0	0	503	508	510	31	0	
5	0	0	0	0	0	507	514	511	32	0	
6	0	0	0	0	0	507	516	509	31	0	
7	0	0	0	0	0	508	512	510	31	0	
8	0	0	0	0	1	510	513	510	31	0	
9	0	0	0	0	0	509	512	508	31	0	
10	0	0	0	0	0	509	511	508	31	0	
11	0	0	0	0	0	507	509	510	31	0	
12	0	0	0	0	0	503	509	508	31	0	
13	0	0	0	0	0	504	517	511	31	0	
14	0	0	0	0	0	502	515	508	31	0	
15	0	0	0	0	0	506	517	506	31	0	
0	0	0	0	0	1	507	516	506	31	0	
1	0	0	0	0	0	504	515	508	31	0	
2	0	0	0	0	0	505	512	509	31	0	
3	0	0	0	0	0	504	508	510	31	0	
4	0	0	0	0	0	507	503	507	32	0	
5	0	0	0	0	0	508	506	510	32	0	
6	0	0	0	0	0	504	504	508	32	0	
7	0	0	0	0	0	503	500	511	32	0	
8	0	0	0	0	1	499	504	511	31	0	
9	0	0	0	0	0	502	508	514	32	0	
10	0	0	0	0	0	505	513	512	31	0	
11	0	0	0	0	0	504	515	510	31	0	
12	0	0	0	0	0	503	514	512	31	0	
13	0	0	0	0	0	502	515	511	32	0	
14	0	0	0	0	0	504	520	510	31	0	
15	0	0	0	0	0	510	531	506	31	0	
0	0	0	0	0	1	511	529	504	31	0	
1	0	0	0	0	0	510	524	503	31	0	
2	0	0	0	0	0	506	519	507	31	0	
3	0	0	0	0	0	506	507	505	31	0	
4	0	0	0	0	0	507	504	505	31	0	
5	0	0	0	0	0	508	502	509	31	0	
6	0	0	0	0	0	508	503	512	31	0	
7	0	0	0	0	0	508	507	512	31	0	
8	0	0	0	0	1	505	510	511	31	0	
9	0	0	0	0	0	500	512	510	32	0	
10	0	0	0	0	0	502	511	508	31	0	
11	0	0	0	0	0	502	515	511	31	0	
12	0	0	0	0	0	502	511	510	31	0	
13	0	0	0	0	0	502	511	513	31	0	
14	0	0	0	0	0	504	508	509	31	0	
15	0	0	0	0	0	506	513	510	31	0	
0	0	0	0	0	1	508	515	508	31	0	
1	0	0	0	0	0	513	520	507	31	0	
2	0	0	0	0	0	514	519	508	31	0	
3	0	0	0	0	0	511	514	508	31	0	
4	0	0	0	0	0	504	511	508	31	0	
5	0	0	0	0	0	500	509	508	31	0	
6	0	0	0	0	0	500	508	509	31	0	
7	0	0	0	0	0	499	505	509	32	0	
8	0	0	0	0	1	502	511	511	31	0	
9	0	0	0	0	0	503	512	511	31	0	
10	0	0	0	0	0	508	513	508	31	0	
11	0	0	0	0	0	507	513	509	31	0	
12	0	0	0	0	0	507	512	512	31	0	
13	0	0	0	0	0	506	513	508	31	0	
14	0	0	0	0	0	505	512	507	31	0	
15	0	0	0	0	0	507	513	508	32	0	
0	0	0	0	0	1	505	513	510	31	0	
1	0	0	0	0	0	504	511	509	31	0	
2	0	0	0	0	0	502	515	511	31	0	
3	0	0	0	0	0	501	514	508	31	0	
4	0	0	0	0	0	500	511	510	31	0	
5	0	0	0	0	0	501	510	507	31	0	
6	0	0	0	0	0	505	512	506	31	0	
7	0	0	0	0	0	506	511	508	31	0	
8	0	0	0	0	1	507	512	511	31	0	
9	0	0	0	0	0	508	511	511	31	0	
10	0	0	0	0	0	509	509	510	31	0	
11	0	0	0	0	0	510	507	511	31	0	
12	0	0	0	0	0	510	507	511	31	0	
13	0	0	0	0	0	507	508	512	31	0	
14	0	0	0	0	0	504	510	513	31	0	
15	0	0	0	0	0	502	513	511	32	0	
0	0	0	0	0	1	504	512	508	31	0	
1	0	0	0	0	0	503	513	508	31	0	
2	0	0	0	0	0	506	511	507	31	0	
3	0	0	0	0	0	505	509	508	31	0	
4	0	0	0	0	0	504	510	506	31	0	
5	0	0	0	0	0	504	506	507	31	0	
6	0	0	0	0	0	505	510	508	31	0	
7	0	0	0	0	0	503	516	508	31	0	
8	0	0	0	0	1	504	526	510	31	0	
9	0	0	0	0	0	504	527	510	31	0	
