# OpenSignals Text File Format. Version 1
# {"98:D3:71:FE:38:C0": {"position": 0, "device": "bitalino_rev", "device name": "98:D3:71:FE:38:C0", "device connection": "BTH98:D3:71:FE:38:C0", "sampling rate": 1000, "resolution": [4, 1, 1, 1, 1, 10, 10, 10, 10, 6, 6], "firmware version": 1282, "comments": "", "keywords": "", "mode": 0, "sync interval": 2, "date": "2026-6-5", "time": "12:20:17.516", "channels": [1, 2, 3, 4, 5, 6], "sensor": ["RAW", "RAW", "RAW", "RAW", "RAW", "RAW"], "label": ["A1", "A2", "A3", "A4", "A5", "A6"], "column": ["nSeq", "I1", "I2", "O1", "O2", "A1", "A2", "A3", "A4", "A5", "A6"], "special": [{}, {}, {}, {}, {}, {}], "digital IO": [0, 0, 1, 1]}}
# EndOfHeader
0	0	0	0	0	0	505	511	507	31	0	
1	0	0	0	0	0	505	510	507	32	0	
2	0	0	0	0	1	505	509	511	32	0	
3	0	0	0	0	0	507	512	511	32	0	
4	0	0	0	0	0	506	515	510	31	0	
5	0	0	0	0	0	506	512	509	31	0	
6	0	0	0	0	0	506	510	510	31	0	
7	0	0	0	0	0	504	512	511	31	0	
8	0	0	0	0	0	507	510	508	31	0	
9	0	0	0	0	0	504	509	510	31	0	
10	0	0	0	0	1	505	512	506	31	0	
11	0	0	0	0	0	505	512	508	31	0	
12	0	0	0	0	0	504	514	514	31	0	
13	0	0	0	0	0	504	512	510	31	0	
14	0	0	0	0	0	504	512	512	31	0	
15	0	0	0	0	0	504	513	510	31	0	
0	0	0	0	0	0	505	513	508	31	0	
1	0	0	0	0	0	502	511	507	32	0	
2	0	0	0	0	1	507	513	508	32	0	
3	0	0	0	0	0	506	513	510	32	0	
4	0	0	0	0	0	505	514	509	31	0	
5	0	0	0	0	0	501	511	512	31	0	
6	0	0	0	0	0	504	512	510	31	0	
7	0	0	0	0	0	504	510	509	32	0	
8	0	0	0	0	0	505	511	507	31	0	
9	0	0	0	0	0	504	512	508	31	0	
10	0	0	0	0	1	504	512	507	31	0	
11	0	0	0	0	0	506	513	507	31	0	
12	0	0	0	0	0	508	512	508	31	0	
13	0	0	0	0	0	506	512	512	31	0	
14	0	0	0	0	0	505	511	514	31	0	
15	0	0	0	0	0	505	510	513	31	0	
0	0	0	0	0	0	506	512	510	31	0	
1	0	0	0	0	0	506	513	509	31	0	
2	0	0	0	0	1	506	513	507	31	0	
3	0	0	0	0	0	505	513	505	31	0	
4	0	0	0	0	0	507	511	505	31	0	
5	0	0	0	0	0	507	511	507	31	0	
6	0	0	0	0	0	504	512	508	31	0	
7	0	0	0	0	0	504	510	510	32	0	
8	0	0	0	0	0	503	510	515	31	0	
9	0	0	0	0	0	503	512	515	31	0	
10	0	0	0	0	1	502	511	515	31	0	
11	0	0	0	0	0	504	511	509	31	0	
12	0	0	0	0	0	509	512	507	31	0	
13	0	0	0	0	0	510	512	505	31	0	
14	0	0	0	0	0	507	513	507	31	0	
15	0	0	0	0	0	508	513	508	31	0	
0	0	0	0	0	0	507	515	507	31	0	
1	0	0	0	0	0	505	513	505	31	0	
2	0	0	0	0	1	504	512	505	31	0	
3	0	0	0	0	0	503	512	507	31	0	
4	0	0	0	0	0	505	509	510	31	0	
5	0	0	0	0	0	504	510	512	31	0	
6	0	0	0	0	0	503	512	510	31	0	
7	0	0	0	0	0	505	512	512	31	0	
8	0	0	0	0	0	504	514	515	31	0	
9	0	0	0	0	0	505	512	512	31	0	
10	0	0	0	0	1	504	511	510	31	0	
11	0	0	0	0	0	505	515	510	32	0	
12	0	0	0	0	0	505	514	511	31	0	
13	0	0	0	0	0	505	514	512	31	0	
14	0	0	0	0	0	506	512	510	31	0	
15	0	0	0	0	0	505	511	507	31	0	
0	0	0	0	0	0	505	512	509	31	0	
1	0	0	0	0	0	506	512	510	31	0	
2	0	0	0	0	1	507	511	508	31	0	
3	0	0	0	0	0	505	514	505	32	0	
4	0	0	0	0	0	507	513	507	31	0	
5	0	0	0	0	0	504	514	506	31	0	
6	0	0	0	0	0	505	512	505	31	0	
7	0	0	0	0	0	503	511	508	31	0	
8	0	0	0	0	0	505	511	510	31	0	
9	0	0	0	0	0	505	511	508	31	0	
10	0	0	0	0	1	506	514	509	31	0	
11	0	0	0	0	0	505	511	509	31	0	
12	0	0	0	0	0	504	512	507	31	0	
13	0	0	0	0	0	504	510	508	31	0	
14	0	0	0	0	0	505	509	506	31	0	
15	0	0	0	0	0	504	511	503	31	0	
0	0	0	0	0	0	505	509	504	31	0	
1	0	0	0	0	0	506	508	507	31	0	
2	0	0	0	0	1	506	510	510	31	0	
3	0	0	0	0	0	505	511	507	31	0	
4	0	0	0	0	0	504	512	510	31	0	
5	0	0	0	0	0	504	515	512	31	0	
6	0	0	0	0	0	503	510	513	31	0	
7	0	0	0	0	0	503	514	512	31	0	
8	0	0	0	0	0	505	516	511	31	0	
9	0	0	0	0	0	504	513	510	31	0	
10	0	0	0	0	1	504	510	509	31	0	
11	0	0	0	0	0	504	511	508	31	0	
12	0	0	0	0	0	505	513	505	31	0	
13	0	0	0	0	0	506	515	508	31	0	
14	0	0	0	0	0	507	513	510	31	0	
15	0	0	0	0	0	507	513	513	31	0	
0	0	0	0	0	0	506	512	514	31	0	
1	0	0	0	0	0	505	510	514	31	0	
2	0	0	0	0	1	506	512	512	31	0	
3	0	0	0	0	0	507	511	510	32	0	
4	0	0	0	0	0	505	512	510	32	0	
5	0	0	0	0	0	503	511	507	31	0	
6	0	0	0	0	0	503	512	509	31	0	
7	0	0	0	0	0	503	512	509	31	0	
8	0	0	0	0	0	502	515	508	31	0	
9	0	0	0	0	0	504	513	508	31	0	
10	0	0	0	0	1	506	512	510	31	0	
11	0	0	0	0	0	507	513	511	31	0	
12	0	0	0	0	0	507	512	512	31	0	
13	0	0	0	0	0	505	512	509	31	0	
14	0	0	0	0	0	507	515	508	31	0	
15	0	0	0	0	0	507	516	508	31	0	
0	0	0	0	0	0	506	513	508	32	0	
1	0	0	0	0	0	505	513	509	31	0	
2	0	0	0	0	1	505	516	509	32	0	
3	0	0	0	0	0	506	513	511	31	0	
4	0	0	0	0	0	505	514	510	31	0	
5	0	0	0	0	0	505	513	511	31	0	
6	0	0	0	0	0	508	513	508	31	0	
7	0	0	0	0	0	505	510	506	31	0	
8	0	0	0	0	0	502	511	507	31	0	
9	0	0	0	0	0	504	509	506	31	0	
10	0	0	0	0	1	504	511	508	31	0	
11	0	0	0	0	0	506	512	508	31	0	
12	0	0	0	0	0	507	512	509	31	0	
13	0	0	0	0	0	504	511	511	31	0	
14	0	0	0	0	0	506	511	510	31	0	
15	0	0	0	0	0	506	511	511	31	0	
0	0	0	0	0	0	507	510	506	31	0	
1	0	0	0	0	0	506	512	507	31	0	
2	0	0	0	0	1	505	512	509	31	0	
3	0	0	0	0	0	507	512	512	31	0	
4	0	0	0	0	0	507	511	509	31	0	
5	0	0	0	0	0	504	509	510	31	0	
6	0	0	0	0	0	504	511	509	31	0	
7	0	0	0	0	0	502	513	508	31	0	
8	0	0	0	0	0	504	512	511	31	0	
9	0	0	0	0	0	504	513	511	31	0	
10	0	0	0	0	1	502	512	510	31	0	
11	0	0	0	0	0	504	511	509	31	0	
12	0	0	0	0	0	502	510	509	32	0	
13	0	0	0	0	0	503	513	504	31	0	
14	0	0	0	0	0	502	513	507	31	0	
15	0	0	0	0	0	503	513	507	31	0	
0	0	0	0	0	0	504	514	510	31	0	
1	0	0	0	0	0	505	513	514	31	0	
2	0	0	0	0	1	506	511	509	31	0	
3	0	0	0	0	0	509	512	511	31	0	
4	0	0	0	0	0	508	512	511	31	0	
5	0	0	0	0	0	507	512	510	31	0	
6	0	0	0	0	0	507	514	508	31	0	
7	0	0	0	0	0	505	515	508	31	0	
8	0	0	0	0	0	506	514	509	32	0	
9	0	0	0	0	0	505	514	511	31	0	
10	0	0	0	0	1	504	511	508	31	0	
11	0	0	0	0	0	505	510	508	31	0	
12	0	0	0	0	0	505	510	509	31	0	
13	0	0	0	0	0	505	511	507	31	0	
14	0	0	0	0	0	505	511	508	31	0	
15	0	0	0	0	0	504	510	510	31	0	
0	0	0	0	0	0	507	510	511	31	0	
1	0	0	0	0	0	504	511	511	31	0	
2	0	0	0	0	0	503	511	509	31	0	
3	0	0	0	0	0	507	513	504	31	0	
4	0	0	0	0	0	505	511	502	31	0	
5	0	0	0	0	0	504	509	501	31	0	
6	0	0	0	0	0	504	512	504	31	0	
7	0	0	0	0	0	502	511	510	31	0	
8	0	0	0	0	0	504	511	512	31	0	
9	0	0	0	0	0	505	511	514	31	0	
10	0	0	0	0	0	505	512	512	31	0	
11	0	0	0	0	0	503	511	511	31	0	
12	0	0	0	0	0	505	509	510	32	0	
13	0	0	0	0	0	505	512	511	31	0	
14	0	0	0	0	0	505	512	513	31	0	
15	0	0	0	0	0	505	515	511	31	0	
0	0	0	0	0	0	506	513	507	31	0	
1	0	0	0	0	0	506	514	509	31	0	
2	0	0	0	0	0	503	516	507	31	0	
3	0	0	0	0	0	504	514	508	31	0	
4	0	0	0	0	0	505	512	509	31	0	
5	0	0	0	0	0	504	510	509	31	0	
6	0	0	0	0	0	505	508	508	31	0	
7	0	0	0	0	0	505	509	508	31	0	
8	0	0	0	0	0	504	511	512	31	0	
9	0	0	0	0	0	504	511	514	32	0	
10	0	0	0	0	1	504	514	515	31	0	
11	0	0	0	0	0	507	511	518	32	0	
12	0	0	0	0	0	508	512	515	31	0	
13	0	0	0	0	0	510	511	511	32	0	
14	0	0	0	0	0	509	513	509	31	0	
15	0	0	0	0	0	507	511	505	31	0	
0	0	0	0	0	0	507	512	502	31	0	
1	0	0	0	0	0	505	513	502	31	0	
2	0	0	0	0	1	506	515	501	31	0	
3	0	0	0	0	0	502	514	499	31	0	
4	0	0	0	0	0	503	513	504	31	0	
5	0	0	0	0	0	505	513	507	31	0	
6	0	0	0	0	0	504	511	510	31	0	
7	0	0	0	0	0	505	512	508	31	0	
8	0	0	0	0	0	502	515	511	31	0	
9	0	0	0	0	0	503	513	517	32	0	
10	0	0	0	0	1	503	513	516	32	0	
11	0	0	0	0	0	501	511	514	32	0	
12	0	0	0	0	0	502	510	515	32	0	
13	0	0	0	0	0	504	511	515	32	0	
14	0	0	0	0	0	504	513	512	31	0	
15	0	0	0	0	0	507	513	509	32	0	
0	0	0	0	0	0	507	511	506	31	0	
1	0	0	0	0	0	505	510	503	31	0	
2	0	0	0	0	1	506	510	505	31	0	
3	0	0	0	0	0	505	512	504	31	0	
4	0	0	0	0	0	508	512	501	31	0	
5	0	0	0	0	0	504	511	500	31	0	
6	0	0	0	0	0	502	514	503	31	0	
7	0	0	0	0	0	503	513	510	31	0	
8	0	0	0	0	0	505	513	513	31	0	
9	0	0	0	0	0	507	513	515	31	0	
10	0	0	0	0	1	505	512	520	32	0	
11	0	0	0	0	0	504	512	518	32	0	
12	0	0	0	0	0	503	512	511	32	0	
13	0	0	0	0	0	505	512	511	32	0	
14	0	0	0	0	0	505	511	511	31	0	
15	0	0	0	0	0	504	513	505	31	0	
0	0	0	0	0	0	508	512	505	31	0	
1	0	0	0	0	0	509	514	504	31	0	
2	0	0	0	0	1	507	513	504	31	0	
3	0	0	0	0	0	503	512	506	31	0	
4	0	0	0	0	0	504	511	508	31	0	
5	0	0	0	0	0	505	513	507	31	0	
6	0	0	0	0	0	507	512	510	31	0	
7	0	0	0	0	0	504	511	513	31	0	
8	0	0	0	0	0	504	512	513	32	0	
9	0	0	0	0	0	504	510	510	32	0	
10	0	0	0	0	1	502	511	511	31	0	
11	0	0	0	0	0	503	511	513	32	0	
12	0	0	0	0	0	504	511	511	31	0	
13	0	0	0	0	0	507	514	507	32	0	
14	0	0	0	0	0	507	512	505	32	0	
15	0	0	0	0	0	506	514	510	31	0	
0	0	0	0	0	0	506	512	513	32	0	
1	0	0	0	0	0	506	513	511	32	0	
2	0	0	0	0	1	506	512	511	32	0	
3	0	0	0	0	0	507	512	510	31	0	
4	0	0	0	0	0	504	513	511	31	0	
5	0	0	0	0	0	504	514	512	31	0	
6	0	0	0	0	0	507	514	506	31	0	
7	0	0	0	0	0	508	509	504	31	0	
8	0	0	0	0	0	507	511	507	31	0	
9	0	0	0	0	0	508	509	510	32	0	
10	0	0	0	0	1	508	510	506	32	0	
11	0	0	0	0	0	508	512	508	32	0	
12	0	0	0	0	0	505	514	507	32	0	
13	0	0	0	0	0	504	516	511	32	0	
14	0	0	0	0	0	504	516	511	31	0	
15	0	0	0	0	0	503	514	511	31	0	
0	0	0	0	0	0	504	512	513	31	0	
1	0	0	0	0	0	504	511	512	31	0	
2	0	0	0	0	1	504	511	510	31	0	
3	0	0	0	0	0	505	508	506	31	0	
4	0	0	0	0	0	504	512	504	31	0	
5	0	0	0	0	0	503	511	506	31	0	
6	0	0	0	0	0	504	510	507	31	0	
7	0	0	0	0	0	504	512	506	32	0	
8	0	0	0	0	0	505	512	511	32	0	
9	0	0	0	0	0	504	509	511	32	0	
10	0	0	0	0	1	506	513	512	32	0	
11	0	0	0	0	0	505	512	509	31	0	
12	0	0	0	0	0	504	511	508	31	0	
13	0	0	0	0	0	506	512	512	31	0	
14	0	0	0	0	0	505	510	511	31	0	
15	0	0	0	0	0	507	512	508	31	0	
0	0	0	0	0	0	504	513	509	31	0	
1	0	0	0	0	0	506	513	512	31	0	
2	0	0	0	0	1	505	513	509	31	0	
3	0	0	0	0	0	505	513	504	31	0	
4	0	0	0	0	0	506	515	508	31	0	
5	0	0	0	0	0	504	514	508	32	0	
6	0	0	0	0	0	503	511	512	31	0	
7	0	0	0	0	0	506	511	511	31	0	
8	0	0	0	0	0	504	514	508	31	0	
9	0	0	0	0	0	504	511	509	31	0	
10	0	0	0	0	1	505	510	510	32	0	
11	0	0	0	0	0	504	509	514	31	0	
12	0	0	0	0	0	505	513	511	31	0	
13	0	0	0	0	0	504	511	508	31	0	
14	0	0	0	0	0	507	511	511	31	0	
15	0	0	0	0	0	506	511	510	32	0	
0	0	0	0	0	0	505	512	508	31	0	
1	0	0	0	0	0	507	512	508	31	0	
2	0	0	0	0	1	504	511	507	31	0	
3	0	0	0	0	0	507	514	507	31	0	
4	0	0	0	0	0	507	512	506	31	0	
5	0	0	0	0	0	507	512	504	31	0	
6	0	0	0	0	0	506	511	509	31	0	
7	0	0	0	0	0	505	512	510	31	0	
8	0	0	0	0	0	505	510	511	32	0	
9	0	0	0	0	0	505	513	510	32	0	
10	0	0	0	0	1	504	511	509	31	0	
11	0	0	0	0	0	505	510	508	31	0	
12	0	0	0	0	0	505	511	510	32	0	
13	0	0	0	0	0	505	510	511	32	0	
14	0	0	0	0	0	505	514	510	31	0	
15	0	0	0	0	0	505	515	509	31	0	
0	0	0	0	0	0	505	513	508	31	0	
1	0	0	0	0	0	504	511	509	31	0	
2	0	0	0	0	1	505	511	508	31	0	
3	0	0	0	0	0	503	511	506	31	0	
4	0	0	0	0	0	503	513	508	31	0	
5	0	0	0	0	0	504	512	507	31	0	
6	0	0	0	0	0	505	512	508	31	0	
7	0	0	0	0	0	506	512	509	31	0	
8	0	0	0	0	0	504	512	510	32	0	
9	0	0	0	0	0	505	512	511	32	0	
10	0	0	0	0	1	505	514	512	32	0	
11	0	0	0	0	0	504	512	513	32	0	
12	0	0	0	0	0	505	512	514	31	0	
13	0	0	0	0	0	506	512	511	31	0	
14	0	0	0	0	0	507	511	508	31	0	
15	0	0	0	0	0	507	511	505	31	0	
0	0	0	0	0	0	505	512	505	31	0	
1	0	0	0	0	0	503	514	506	31	0	
2	0	0	0	0	1	504	514	505	31	0	
3	0	0	0	0	0	503	513	506	31	0	
4	0	0	0	0	0	504	512	510	31	0	
5	0	0	0	0	0	504	511	512	32	0	
6	0	0	0	0	0	506	511	509	32	0	
7	0	0	0	0	0	507	513	508	31	0	
8	0	0	0	0	0	507	513	504	31	0	
9	0	0	0	0	0	507	513	504	31	0	
10	0	0	0	0	1	507	512	507	31	0	
11	0	0	0	0	0	508	511	509	31	0	
12	0	0	0	0	0	507	512	512	32	0	
13	0	0	0	0	0	507	511	512	32	0	
14	0	0	0	0	0	505	511	511	32	0	
15	0	0	0	0	0	503	510	515	32	0	
0	0	0	0	0	0	504	509	513	32	0	
1	0	0	0	0	0	504	511	510	32	0	
2	0	0	0	0	1	503	511	512	32	0	
3	0	0	0	0	0	503	510	511	31	0	
4	0	0	0	0	0	504	513	512	31	0	
5	0	0	0	0	0	505	514	511	31	0	
6	0	0	0	0	0	505	515	509	31	0	
7	0	0	0	0	0	503	513	507	31	0	
8	0	0	0	0	0	505	511	508	31	0	
9	0	0	0	0	0	503	513	508	31	0	
10	0	0	0	0	1	504	515	505	31	0	
11	0	0	0	0	0	504	512	504	31	0	
12	0	0	0	0	0	504	510	506	31	0	
13	0	0	0	0	0	504	512	510	31	0	
14	0	0	0	0	0	504	511	511	31	0	
15	0	0	0	0	0	506	514	508	31	0	
0	0	0	0	0	0	507	511	510	31	0	
1	0	0	0	0	0	505	511	507	31	0	
2	0	0	0	0	1	506	511	512	31	0	
3	0	0	0	0	0	504	510	511	31	0	
4	0	0	0	0	0	503	511	511	32	0	
5	0	0	0	0	0	501	511	510	31	0	
6	0	0	0	0	0	504	511	508	31	0	
7	0	0	0	0	0	506	512	510	31	0	
8	0	0	0	0	0	504	511	509	31	0	
9	0	0	0	0	0	505	511	506	31	0	
10	0	0	0	0	1	507	511	507	31	0	
11	0	0	0	0	0	505	511	507	31	0	
12	0	0	0	0	0	507	513	507	31	0	
13	0	0	0	0	0	508	513	510	31	0	
14	0	0	0	0	0	507	513	512	31	0	
15	0	0	0	0	0	506	513	512	31	0	
0	0	0	0	0	0	505	512	509	31	0	
1	0	0	0	0	0	506	513	513	32	0	
2	0	0	0	0	1	503	512	515	32	0	
3	0	0	0	0	0	502	512	513	32	0	
4	0	0	0	0	0	503	512	510	32	0	
5	0	0	0	0	0	504	515	511	32	0	
6	0	0	0	0	0	509	514	504	31	0	
7	0	0	0	0	0	509	514	501	31	0	
8	0	0	0	0	0	506	512	504	31	0	
9	0	0	0	0	0	502	511	507	31	0	
10	0	0	0	0	1	504	511	508	31	0	
11	0	0	0	0	0	503	511	510	31	0	
12	0	0	0	0	0	504	510	508	31	0	
13	0	0	0	0	0	506	510	506	31	0	
14	0	0	0	0	0	508	511	506	31	0	
15	0	0	0	0	0	504	511	509	31	0	
0	0	0	0	0	0	504	511	508	31	0	
1	0	0	0	0	0	503	510	512	31	0	
2	0	0	0	0	0	504	511	513	32	0	
3	0	0	0	0	0	504	511	512	32	0	
4	0	0	0	0	0	505	509	515	32	0	
5	0	0	0	0	0	505	513	513	32	0	
6	0	0	0	0	0	506	514	510	31	0	
7	0	0	0	0	0	507	512	508	31	0	
8	0	0	0	0	0	505	512	509	32	0	
9	0	0	0	0	0	508	510	507	31	0	
10	0	0	0	0	0	507	515	507	31	0	
11	0	0	0	0	0	507	513	506	31	0	
12	0	0	0	0	0	507	513	505	31	0	
13	0	0	0	0	0	507	515	503	31	0	
14	0	0	0	0	0	505	514	506	31	0	
15	0	0	0	0	0	504	514	510	31	0	
0	0	0	0	0	0	502	513	511	31	0	
1	0	0	0	0	0	502	510	511	31	0	
2	0	0	0	0	1	502	510	511	31	0	
3	0	0	0	0	0	504	510	511	31	0	
4	0	0	0	0	0	504	512	513	32	0	
5	0	0	0	0	0	504	511	515	32	0	
6	0	0	0	0	0	506	511	512	32	0	
7	0	0	0	0	0	505	513	511	32	0	
8	0	0	0	0	0	506	511	512	31	0	
9	0	0	0	0	0	505	513	513	31	0	
10	0	0	0	0	1	507	513	509	31	0	
11	0	0	0	0	0	507	512	505	31	0	
12	0	0	0	0	0	508	512	502	31	0	
13	0	0	0	0	0	508	512	505	31	0	
14	0	0	0	0	0	504	510	505	31	0	
15	0	0	0	0	0	504	509	505	31	0	
0	0	0	0	0	0	504	510	508	31	0	
1	0	0	0	0	0	504	510	508	32	0	
2	0	0	0	0	1	503	511	506	32	0	
3	0	0	0	0	0	504	510	511	32	0	
4	0	0	0	0	0	502	512	511	32	0	
5	0	0	0	0	0	504	513	509	32	0	
6	0	0	0	0	0	506	512	510	31	0	
7	0	0	0	0	0	505	513	510	31	0	
8	0	0	0	0	0	505	514	510	31	0	
9	0	0	0	0	0	504	512	511	31	0	
10	0	0	0	0	1	506	511	511	31	0	
11	0	0	0	0	0	507	511	508	31	0	
12	0	0	0	0	0	508	511	505	31	0	
13	0	0	0	0	0	507	511	508	31	0	
14	0	0	0	0	0	504	510	511	32	0	
15	0	0	0	0	0	505	512	510	31	0	
0	0	0	0	0	0	504	515	513	31	0	
1	0	0	0	0	0	504	515	512	31	0	
2	0	0	0	0	1	505	513	510	32	0	
3	0	0	0	0	0	505	510	510	32	0	
4	0	0	0	0	0	504	510	512	32	0	
5	0	0	0	0	0	505	511	513	32	0	
6	0	0	0	0	0	505	511	512	31	0	
7	0	0	0	0	0	505	514	514	31	0	
8	0	0	0	0	0	504	512	514	31	0	
9	0	0	0	0	0	507	515	514	31	0	
10	0	0	0	0	1	505	511	513	31	0	
11	0	0	0	0	0	507	512	508	32	0	
12	0	0	0	0	0	508	513	501	32	0	
13	0	0	0	0	0	508	513	499	31	0	
14	0	0	0	0	0	507	512	500	31	0	
15	0	0	0	0	0	505	512	497	31	0	
0	0	0	0	0	0	504	513	502	31	0	
1	0	0	0	0	0	504	512	504	31	0	
2	0	0	0	0	1	505	510	505	31	0	
3	0	0	0	0	0	504	511	511	31	0	
4	0	0	0	0	0	504	511	514	31	0	
5	0	0	0	0	0	503	512	515	32	0	
6	0	0	0	0	0	505	515	516	32	0	
7	0	0	0	0	0	508	515	515	32	0	
8	0	0	0	0	0	508	513	513	32	0	
9	0	0	0	0	0	505	512	510	32	0	
10	0	0	0	0	1	506	512	509	31	0	
11	0	0	0	0	0	504	512	511	31	0	
12	0	0	0	0	0	501	512	511	32	0	
13	0	0	0	0	0	500	511	511	32	0	
14	0	0	0	0	0	504	511	509	31	0	
15	0	0	0	0	0	508	514	505	31	0	
0	0	0	0	0	0	504	512	502	31	0	
1	0	0	0	0	0	507	512	507	31	0	
2	0	0	0	0	1	506	512	509	31	0	
3	0	0	0	0	0	505	511	507	31	0	
4	0	0	0	0	0	507	511	505	31	0	
5	0	0	0	0	0	507	512	507	31	0	
6	0	0	0	0	0	505	513	508	31	0	
7	0	0	0	0	0	505	512	511	31	0	
8	0	0	0	0	0	504	509	514	31	0	
9	0	0	0	0	0	505	508	512	32	0	
10	0	0	0	0	1	504	511	512	32	0	
11	0	0	0	0	0	507	514	512	32	0	
12	0	0	0	0	0	505	514	510	31	0	
13	0	0	0	0	0	505	515	512	31	0	
14	0	0	0	0	0	506	515	509	31	0	
15	0	0	0	0	0	504	513	507	31	0	
0	0	0	0	0	0	505	514	503	31	0	
1	0	0	0	0	0	506	512	509	31	0	
2	0	0	0	0	1	506	511	510	31	0	
3	0	0	0	0	0	507	508	510	31	0	
4	0	0	0	0	0	505	511	511	32	0	
5	0	0	0	0	0	506	511	511	32	0	
6	0	0	0	0	0	504	512	511	31	0	
7	0	0	0	0	0	505	513	510	32	0	
8	0	0	0	0	0	506	512	508	32	0	
9	0	0	0	0	0	504	512	513	31	0	
10	0	0	0	0	1	504	511	516	31	0	
11	0	0	0	0	0	506	510	515	31	0	
12	0	0	0	0	0	504	510	515	31	0	
13	0	0	0	0	0	504	509	509	31	0	
14	0	0	0	0	0	506	513	504	31	0	
15	0	0	0	0	0	506	512	500	31	0	
0	0	0	0	0	0	505	512	503	31	0	
1	0	0	0	0	0	504	514	502	32	0	
2	0	0	0	0	1	504	514	502	32	0	
3	0	0	0	0	0	504	513	509	32	0	
4	0	0	0	0	0	505	514	508	32	0	
5	0	0	0	0	0	507	515	506	32	0	
6	0	0	0	0	0	505	513	509	31	0	
7	0	0	0	0	0	504	512	516	31	0	
8	0	0	0	0	0	507	514	516	31	0	
9	0	0	0	0	0	506	512	513	31	0	
10	0	0	0	0	1	504	510	512	31	0	
11	0	0	0	0	0	504	509	510	31	0	
12	0	0	0	0	0	505	511	505	31	0	
13	0	0	0	0	0	505	512	502	31	0	
14	0	0	0	0	0	505	512	504	32	0	
15	0	0	0	0	0	507	511	505	32	0	
0	0	0	0	0	0	504	512	510	32	0	
1	0	0	0	0	0	506	511	510	31	0	
2	0	0	0	0	1	505	513	512	31	0	
3	0	0	0	0	0	505	511	509	31	0	
4	0	0	0	0	0	504	510	509	31	0	
5	0	0	0	0	0	502	510	508	31	0	
6	0	0	0	0	0	504	511	510	31	0	
7	0	0	0	0	0	504	513	512	31	0	
8	0	0	0	0	0	505	514	513	32	0	
9	0	0	0	0	0	507	511	511	32	0	
10	0	0	0	0	1	507	512	511	31	0	
11	0	0	0	0	0	505	512	511	31	0	
12	0	0	0	0	0	505	511	509	31	0	
13	0	0	0	0	0	505	513	509	32	0	
14	0	0	0	0	0	504	510	508	31	0	
15	0	0	0	0	0	504	511	508	31	0	
0	0	0	0	0	0	506	513	509	31	0	
1	0	0	0	0	0	504	514	508	31	0	
2	0	0	0	0	1	505	510	512	31	0	
3	0	0	0	0	0	505	512	508	31	0	
4	0	0	0	0	0	507	513	510	31	0	
5	0	0	0	0	0	507	514	505	31	0	
6	0	0	0	0	0	507	514	508	31	0	
7	0	0	0	0	0	506	516	508	31	0	
8	0	0	0	0	0	507	513	512	31	0	
9	0	0	0	0	0	504	513	511	31	0	
10	0	0	0	0	1	504	511	510	31	0	
11	0	0	0	0	0	504	512	509	31	0	
12	0	0	0	0	0	504	510	509	31	0	
13	0	0	0	0	0	504	511	508	31	0	
14	0	0	0	0	0	503	512	508	31	0	
15	0	0	0	0	0	504	511	509	31	0	
0	0	0	0	0	0	504	513	510	31	0	
1	0	0	0	0	0	506	514	511	31	0	
2	0	0	0	0	1	506	515	510	31	0	
3	0	0	0	0	0	504	511	508	31	0	
4	0	0	0	0	0	506	510	511	32	0	
5	0	0	0	0	0	505	510	510	32	0	
6	0	0	0	0	0	504	511	509	31	0	
7	0	0	0	0	0	504	511	510	31	0	
8	0	0	0	0	0	504	511	509	31	0	
9	0	0	0	0	0	506	514	508	31	0	
10	0	0	0	0	1	505	512	506	31	0	
11	0	0	0	0	0	507	511	508	31	0	
12	0	0	0	0	0	504	513	510	31	0	
13	0	0	0	0	0	504	510	510	32	0	
14	0	0	0	0	0	504	511	510	32	0	
15	0	0	0	0	0	504	513	513	32	0	
0	0	0	0	0	0	507	513	511	32	0	
1	0	0	0	0	0	506	513	511	31	0	
2	0	0	0	0	1	508	512	508	31	0	
3	0	0	0	0	0	505	512	509	31	0	
4	0	0	0	0	0	504	512	508	31	0	
5	0	0	0	0	0	505	513	508	31	0	
6	0	0	0	0	0	506	512	509	31	0	
7	0	0	0	0	0	505	513	511	31	0	
8	0	0	0	0	0	503	512	511	32	0	
9	0	0	0	0	0	503	511	508	31	0	
10	0	0	0	0	1	504	513	508	31	0	
11	0	0	0	0	0	504	512	508	31	0	
12	0	0	0	0	0	503	510	502	31	0	
13	0	0	0	0	0	504	511	504	31	0	
14	0	0	0	0	0	505	513	505	31	0	
15	0	0	0	0	0	507	509	504	31	0	
0	0	0	0	0	0	510	510	507	31	0	
1	0	0	0	0	0	509	513	504	31	0	
2	0	0	0	0	1	508	516	505	31	0	
3	0	0	0	0	0	506	512	510	31	0	
4	0	0	0	0	0	503	511	512	31	0	
5	0	0	0	0	0	502	513	513	31	0	
6	0	0	0	0	0	504	512	512	31	0	
7	0	0	0	0	0	505	512	512	32	0	
8	0	0	0	0	0	505	511	510	32	0	
9	0	0	0	0	0	504	513	509	32	0	
10	0	0	0	0	1	504	512	511	31	0	
11	0	0	0	0	0	504	511	512	32	0	
12	0	0	0	0	0	505	512	512	32	0	
13	0	0	0	0	0	504	511	512	32	0	
14	0	0	0	0	0	503	511	513	31	0	
15	0	0	0	0	0	503	513	511	31	0	
0	0	0	0	0	0	505	510	509	31	0	
1	0	0	0	0	0	504	512	509	31	0	
2	0	0	0	0	1	506	511	508	31	0	
3	0	0	0	0	0	507	514	507	31	0	
4	0	0	0	0	0	506	513	507	31	0	
5	0	0	0	0	0	505	512	508	31	0	
6	0	0	0	0	0	503	511	510	31	0	
7	0	0	0	0	0	505	511	513	31	0	
8	0	0	0	0	0	505	511	510	31	0	
9	0	0	0	0	0	505	512	508	31	0	
10	0	0	0	0	0	506	513	510	31	0	
11	0	0	0	0	0	505	511	510	31	0	
12	0	0	0	0	0	503	514	509	31	0	
13	0	0	0	0	0	505	510	506	31	0	
14	0	0	0	0	0	506	514	508	31	0	
15	0	0	0	0	0	505	511	507	31	0	
0	0	0	0	0	0	504	513	508	31	0	
1	0	0	0	0	0	505	510	510	31	0	
2	0	0	0	0	0	507	511	507	31	0	
3	0	0	0	0	0	508	512	509	31	0	
4	0	0	0	0	0	505	514	505	31	0	
5	0	0	0	0	0	506	513	505	31	0	
6	0	0	0	0	0	506	512	508	31	0	
7	0	0	0	0	0	504	513	508	31	0	
8	0	0	0	0	0	506	514	509	31	0	
9	0	0	0	0	0	504	513	510	31	0	
10	0	0	0	0	0	507	513	512	31	0	
11	0	0	0	0	0	505	511	513	32	0	
12	0	0	0	0	0	507	508	515	32	0	
13	0	0	0	0	0	505	510	515	31	0	
14	0	0	0	0	0	503	511	513	31	0	
15	0	0	0	0	0	503	509	512	31	0	
0	0	0	0	0	0	504	510	508	31	0	
1	0	0	0	0	0	505	511	508	31	0	
2	0	0	0	0	1	507	512	508	31	0	
3	0	0	0	0	0	505	511	507	31	0	
4	0	0	0	0	0	504	512	508	31	0	
5	0	0	0	0	0	505	513	510	31	0	
6	0	0	0	0	0	504	513	509	31	0	
7	0	0	0	0	0	504	513	508	31	0	
8	0	0	0	0	0	504	511	505	31	0	
9	0	0	0	0	0	505	511	507	31	0	
10	0	0	0	0	1	505	514	507	31	0	
11	0	0	0	0	0	507	513	508	31	0	
12	0	0	0	0	0	505	514	510	31	0	
13	0	0	0	0	0	504	511	508	31	0	
14	0	0	0	0	0	505	512	508	31	0	
15	0	0	0	0	0	505	511	508	31	0	
0	0	0	0	0	0	505	511	507	31	0	
1	0	0	0	0	0	505	511	511	31	0	
2	0	0	0	0	1	504	510	509	32	0	
3	0	0	0	0	0	507	513	508	32	0	
4	0	0	0	0	0	507	513	508	31	0	
5	0	0	0	0	0	505	513	508	31	0	
6	0	0	0	0	0	503	511	512	31	0	
7	0	0	0	0	0	505	513	512	31	0	
8	0	0	0	0	0	504	512	509	31	0	
9	0	0	0	0	0	504	512	509	31	0	
10	0	0	0	0	1	504	512	507	31	0	
11	0	0	0	0	0	504	513	509	31	0	
12	0	0	0	0	0	508	512	510	32	0	
13	0	0	0	0	0	506	513	510	32	0	
14	0	0	0	0	0	506	513	513	31	0	
15	0	0	0	0	0	505	511	512	31	0	
0	0	0	0	0	0	506	511	512	31	0	
1	0	0	0	0	0	504	513	510	31	0	
2	0	0	0	0	1	505	511	507	31	0	
3	0	0	0	0	0	507	510	506	31	0	
4	0	0	0	0	0	508	510	507	31	0	
5	0	0	0	0	0	505	511	507	31	0	
6	0	0	0	0	0	504	511	505	31	0	
7	0	0	0	0	0	504	513	508	31	0	
8	0	0	0	0	0	503	512	508	32	0	
9	0	0	0	0	0	507	513	509	31	0	
10	0	0	0	0	1	504	512	510	32	0	
11	0	0	0	0	0	503	514	512	32	0	
12	0	0	0	0	0	504	512	510	32	0	
13	0	0	0	0	0	504	511	511	32	0	
14	0	0	0	0	0	505	510	512	31	0	
15	0	0	0	0	0	504	509	511	31	0	
0	0	0	0	0	0	503	510	507	31	0	
1	0	0	0	0	0	508	513	507	31	0	
2	0	0	0	0	1	506	511	506	31	0	
3	0	0	0	0	0	506	511	508	31	0	
4	0	0	0	0	0	505	514	505	32	0	
5	0	0	0	0	0	507	513	508	32	0	
6	0	0	0	0	0	506	512	508	31	0	
7	0	0	0	0	0	508	513	510	31	0	
8	0	0	0	0	0	505	513	510	31	0	
9	0	0	0	0	0	503	512	508	31	0	
10	0	0	0	0	1	505	513	507	31	0	
11	0	0	0	0	0	507	511	508	31	0	
12	0	0	0	0	0	506	512	508	31	0	
13	0	0	0	0	0	507	511	508	31	0	
14	0	0	0	0	0	504	510	508	31	0	
15	0	0	0	0	0	503	513	508	31	0	
0	0	0	0	0	0	505	511	511	31	0	
1	0	0	0	0	0	503	513	511	31	0	
2	0	0	0	0	1	505	514	510	31	0	
3	0	0	0	0	0	502	514	510	31	0	
4	0	0	0	0	0	505	511	511	31	0	
5	0	0	0	0	0	505	511	510	31	0	
6	0	0	0	0	0	504	512	509	31	0	
7	0	0	0	0	0	504	510	509	31	0	
8	0	0	0	0	0	504	511	510	31	0	
9	0	0	0	0	0	507	511	510	31	0	
10	0	0	0	0	1	505	511	508	31	0	
11	0	0	0	0	0	506	513	508	31	0	
12	0	0	0	0	0	505	514	509	31	0	
13	0	0	0	0	0	507	512	510	31	0	
14	0	0	0	0	0	505	515	506	31	0	
15	0	0	0	0	0	504	514	511	32	0	
0	0	0	0	0	0	504	512	511	32	0	
1	0	0	0	0	0	504	512	511	32	0	
2	0	0	0	0	1	504	513	510	32	0	
3	0	0	0	0	0	505	513	511	31	0	
4	0	0	0	0	0	505	512	509	31	0	
5	0	0	0	0	0	506	512	509	31	0	
6	0	0	0	0	0	507	512	507	31	0	
7	0	0	0	0	0	506	510	505	31	0	
8	0	0	0	0	0	506	511	507	31	0	
9	0	0	0	0	0	506	511	507	31	0	
10	0	0	0	0	1	505	511	508	31	0	
11	0	0	0	0	0	505	510	508	31	0	
12	0	0	0	0	0	507	512	512	32	0	
13	0	0	0	0	0	505	513	511	32	0	
14	0	0	0	0	0	505	515	511	32	0	
15	0	0	0	0	0	504	513	512	31	0	
0	0	0	0	0	0	503	512	512	31	0	
1	0	0	0	0	0	503	513	511	31	0	
2	0	0	0	0	1	504	511	508	31	0	
3	0	0	0	0	0	506	512	508	31	0	
4	0	0	0	0	0	506	512	508	31	0	
5	0	0	0	0	0	505	512	505	31	0	
6	0	0	0	0	0	507	513	505	31	0	
7	0	0	0	0	0	505	512	506	31	0	
8	0	0	0	0	0	506	510	508	32	0	
9	0	0	0	0	0	505	510	508	31	0	
10	0	0	0	0	1	504	512	510	31	0	
11	0	0	0	0	0	505	514	511	31	0	
12	0	0	0	0	0	506	511	510	31	0	
13	0	0	0	0	0	507	512	509	31	0	
14	0	0	0	0	0	504	510	508	31	0	
15	0	0	0	0	0	504	512	510	31	0	
0	0	0	0	0	0	506	512	508	31	0	
1	0	0	0	0	0	508	512	511	31	0	
2	0	0	0	0	1	504	512	512	32	0	
3	0	0	0	0	0	504	513	512	31	0	
4	0	0	0	0	0	503	512	509	31	0	
5	0	0	0	0	0	505	512	507	31	0	
6	0	0	0	0	0	505	512	507	31	0	
7	0	0	0	0	0	505	512	509	31	0	
8	0	0	0	0	0	505	512	510	31	0	
9	0	0	0	0	0	504	511	509	31	0	
10	0	0	0	0	1	506	511	511	31	0	
11	0	0	0	0	0	505	511	512	31	0	
12	0	0	0	0	0	508	515	512	32	0	
13	0	0	0	0	0	507	513	509	32	0	
14	0	0	0	0	0	507	512	508	32	0	
15	0	0	0	0	0	505	513	508	31	0	
0	0	0	0	0	0	506	513	508	31	0	
1	0	0	0	0	0	505	511	507	31	0	
2	0	0	0	0	1	507	513	508	31	0	
3	0	0	0	0	0	506	512	508	31	0	
4	0	0	0	0	0	506	511	508	31	0	
5	0	0	0	0	0	504	512	508	31	0	
6	0	0	0	0	0	504	510	508	31	0	
7	0	0	0	0	0	504	513	507	31	0	
8	0	0	0	0	0	505	512	506	31	0	
9	0	0	0	0	0	503	510	508	31	0	
10	0	0	0	0	1	503	513	508	31	0	
11	0	0	0	0	0	504	512	509	31	0	
12	0	0	0	0	0	504	512	511	31	0	
13	0	0	0	0	0	506	512	510	31	0	
14	0	0	0	0	0	505	511	509	31	0	
15	0	0	0	0	0	507	512	510	32	0	
0	0	0	0	0	0	507	510	512	32	0	
1	0	0	0	0	0	504	512	511	32	0	
2	0	0	0	0	1	505	512	512	32	0	
3	0	0	0	0	0	504	513	510	32	0	
4	0	0	0	0	0	503	512	510	31	0	
5	0	0	0	0	0	504	512	508	31	0	
6	0	0	0	0	0	504	512	512	31	0	
7	0	0	0	0	0	504	512	511	31	0	
8	0	0	0	0	0	505	512	513	31	0	
9	0	0	0	0	0	504	511	513	31	0	
10	0	0	0	0	1	506	511	511	31	0	
11	0	0	0	0	0	506	513	512	31	0	
12	0	0	0	0	0	508	513	508	31	0	
13	0	0	0	0	0	507	513	504	31	0	
14	0	0	0	0	0	508	512	501	31	0	
15	0	0	0	0	0	505	512	503	31	0	
0	0	0	0	0	0	503	510	503	31	0	
1	0	0	0	0	0	506	511	506	31	0	
2	0	0	0	0	1	504	511	510	31	0	
3	0	0	0	0	0	502	511	511	32	0	
4	0	0	0	0	0	505	510	513	32	0	
5	0	0	0	0	0	504	511	511	32	0	
6	0	0	0	0	0	507	512	508	31	0	
7	0	0	0	0	0	505	512	507	31	0	
8	0	0	0	0	0	504	512	510	32	0	
9	0	0	0	0	0	505	514	512	32	0	
10	0	0	0	0	1	505	513	513	32	0	
11	0	0	0	0	0	507	512	515	32	0	
12	0	0	0	0	0	505	511	510	31	0	
13	0	0	0	0	0	507	511	507	31	0	
14	0	0	0	0	0	504	514	508	31	0	
15	0	0	0	0	0	505	513	506	31	0	
0	0	0	0	0	0	505	511	505	31	0	
1	0	0	0	0	0	504	511	505	31	0	
2	0	0	0	0	1	504	514	508	31	0	
3	0	0	0	0	0	506	513	508	31	0	
4	0	0	0	0	0	504	512	509	31	0	
5	0	0	0	0	0	503	513	510	32	0	
6	0	0	0	0	0	503	511	511	32	0	
7	0	0	0	0	0	504	511	508	32	0	
8	0	0	0	0	0	504	511	509	31	0	
9	0	0	0	0	0	504	509	509	31	0	
10	0	0	0	0	1	503	512	510	31	0	
11	0	0	0	0	0	504	512	511	31	0	
12	0	0	0	0	0	506	510	511	31	0	
13	0	0	0	0	0	504	510	511	31	0	
14	0	0	0	0	0	505	513	512	31	0	
15	0	0	0	0	0	505	513	510	31	0	
0	0	0	0	0	0	504	513	511	31	0	
1	0	0	0	0	0	507	512	509	31	0	
2	0	0	0	0	0	508	513	508	32	0	
3	0	0	0	0	0	509	513	510	31	0	
4	0	0	0	0	0	506	514	508	31	0	
5	0	0	0	0	0	506	512	508	31	0	
6	0	0	0	0	0	507	511	506	31	0	
7	0	0	0	0	0	506	512	509	31	0	
8	0	0	0	0	0	506	513	509	31	0	
9	0	0	0	0	0	504	514	510	31	0	
10	0	0	0	0	0	506	512	507	31	0	
11	0	0	0	0	0	503	511	508	31	0	
12	0	0	0	0	0	504	512	511	31	0	
13	0	0	0	0	0	505	511	511	31	0	
14	0	0	0	0	0	505	512	513	32	0	
15	0	0	0	0	0	506	511	511	32	0	
0	0	0	0	0	0	505	512	511	32	0	
1	0	0	0	0	0	506	511	510	31	0	
2	0	0	0	0	0	505	512	510	31	0	
3	0	0	0	0	0	505	512	507	31	0	
4	0	0	0	0	0	505	512	501	31	0	
5	0	0	0	0	0	505	509	499	31	0	
6	0	0	0	0	0	504	512	504	31	0	
7	0	0	0	0	0	504	513	504	31	0	
8	0	0	0	0	0	502	512	505	31	0	
9	0	0	0	0	0	503	513	510	31	0	
10	0	0	0	0	1	504	511	510	31	0	
11	0	0	0	0	0	507	513	510	31	0	
12	0	0	0	0	0	505	512	508	31	0	
13	0	0	0	0	0	504	510	508	31	0	
14	0	0	0	0	0	505	512	508	31	0	
15	0	0	0	0	0	507	513	510	31	0	
0	0	0	0	0	0	506	511	511	32	0	
1	0	0	0	0	0	505	512	513	32	0	
2	0	0	0	0	1	504	512	512	32	0	
3	0	0	0	0	0	506	512	513	31	0	
4	0	0	0	0	0	505	515	512	31	0	
5	0	0	0	0	0	504	512	512	32	0	
6	0	0	0	0	0	504	510	511	32	0	
7	0	0	0	0	0	504	511	512	32	0	
8	0	0	0	0	0	503	509	513	32	0	
9	0	0	0	0	0	504	511	512	31	0	
10	0	0	0	0	1	507	512	512	32	0	
11	0	0	0	0	0	507	513	512	31	0	
12	0	0	0	0	0	504	512	508	31	0	
13	0	0	0	0	0	503	512	508	31	0	
14	0	0	0	0	0	504	512	506	31	0	
15	0	0	0	0	0	504	512	505	31	0	
0	0	0	0	0	0	507	514	502	31	0	
1	0	0	0	0	0	506	513	500	31	0	
2	0	0	0	0	1	507	510	502	31	0	
3	0	0	0	0	0	505	512	505	31	0	
4	0	0	0	0	0	504	511	507	31	0	
5	0	0	0	0	0	504	511	510	31	0	
6	0	0	0	0	0	503	511	512	32	0	
7	0	0	0	0	0	505	510	513	32	0	
8	0	0	0	0	0	505	513	512	32	0	
9	0	0	0	0	0	507	512	511	32	0	
10	0	0	0	0	1	509	513	509	32	0	
11	0	0	0	0	0	508	512	511	31	0	
12	0	0	0	0	0	506	512	511	31	0	
13	0	0	0	0	0	504	511	512	32	0	
14	0	0	0	0	0	504	513	513	32	0	
15	0	0	0	0	0	504	511	512	31	0	
0	0	0	0	0	0	504	512	511	31	0	
1	0	0	0	0	0	505	510	508	31	0	
2	0	0	0	0	1	503	513	510	31	0	
3	0	0	0	0	0	504	515	509	31	0	
4	0	0	0	0	0	505	512	506	31	0	
5	0	0	0	0	0	505	512	506	31	0	
6	0	0	0	0	0	503	514	506	31	0	
7	0	0	0	0	0	504	511	505	31	0	
8	0	0	0	0	0	505	514	506	31	0	
9	0	0	0	0	0	504	515	504	31	0	
10	0	0	0	0	1	505	509	507	31	0	
11	0	0	0	0	0	505	512	510	32	0	
12	0	0	0	0	0	504	511	509	31	0	
13	0	0	0	0	0	504	511	511	31	0	
14	0	0	0	0	0	507	512	511	31	0	
15	0	0	0	0	0	508	511	510	31	0	
0	0	0	0	0	0	508	511	510	31	0	
1	0	0	0	0	0	507	514	511	31	0	
2	0	0	0	0	1	505	514	512	31	0	
3	0	0	0	0	0	508	512	510	31	0	
4	0	0	0	0	0	506	514	508	31	0	
5	0	0	0	0	0	505	513	509	31	0	
6	0	0	0	0	0	503	511	507	31	0	
7	0	0	0	0	0	502	511	508	31	0	
8	0	0	0	0	0	502	511	508	31	0	
9	0	0	0	0	0	504	513	507	31	0	
10	0	0	0	0	1	505	512	509	31	0	
11	0	0	0	0	0	503	513	510	31	0	
12	0	0	0	0	0	504	511	508	31	0	
13	0	0	0	0	0	506	511	510	31	0	
14	0	0	0	0	0	507	514	508	31	0	
15	0	0	0	0	0	507	513	510	31	0	
0	0	0	0	0	0	504	512	512	31	0	
1	0	0	0	0	0	504	513	511	31	0	
2	0	0	0	0	1	505	515	511	31	0	
3	0	0	0	0	0	504	512	509	31	0	
4	0	0	0	0	0	506	512	512	31	0	
5	0	0	0	0	0	505	512	512	32	0	
6	0	0	0	0	0	507	510	510	31	0	
7	0	0	0	0	0	507	512	509	32	0	
8	0	0	0	0	0	505	512	507	32	0	
9	0	0	0	0	0	504	512	508	32	0	
10	0	0	0	0	1	504	511	507	32	0	
11	0	0	0	0	0	505	512	507	31	0	
12	0	0	0	0	0	507	510	507	31	0	
13	0	0	0	0	0	505	511	511	31	0	
14	0	0	0	0	0	504	513	508	31	0	
15	0	0	0	0	0	505	514	509	31	0	
0	0	0	0	0	0	508	512	505	31	0	
1	0	0	0	0	0	510	508	509	31	0	
2	0	0	0	0	1	504	511	509	31	0	
3	0	0	0	0	0	504	511	508	31	0	
4	0	0	0	0	0	505	510	508	31	0	
5	0	0	0	0	0	505	510	507	31	0	
6	0	0	0	0	0	505	511	508	31	0	
7	0	0	0	0	0	505	510	509	31	0	
8	0	0	0	0	0	501	512	510	31	0	
9	0	0	0	0	0	502	513	512	31	0	
10	0	0	0	0	0	505	512	511	31	0	
11	0	0	0	0	0	505	513	511	31	0	
12	0	0	0	0	0	506	510	508	31	0	
13	0	0	0	0	0	504	513	511	31	0	
14	0	0	0	0	0	506	510	506	31	0	
15	0	0	0	0	0	505	512	505	31	0	
0	0	0	0	0	0	506	512	504	31	0	
1	0	0	0	0	0	503	510	505	31	0	
2	0	0	0	0	1	506	510	507	31	0	
3	0	0	0	0	0	505	512	510	31	0	
4	0	0	0	0	0	506	513	512	31	0	
5	0	0	0	0	0	504	515	512	31	0	
6	0	0	0	0	0	506	516	510	31	0	
7	0	0	0	0	0	504	512	510	31	0	
8	0	0	0	0	0	504	513	508	31	0	
9	0	0	0	0	0	505	513	512	31	0	
10	0	0	0	0	1	504	513	511	31	0	
11	0	0	0	0	0	507	514	512	32	0	
12	0	0	0	0	0	507	515	511	32	0	
13	0	0	0	0	0	505	515	515	32	0	
14	0	0	0	0	0	504	512	512	31	0	
15	0	0	0	0	0	504	512	507	31	0	
0	0	0	0	0	0	504	514	505	31	0	
1	0	0	0	0	0	506	511	505	31	0	
2	0	0	0	0	1	504	512	510	31	0	
3	0	0	0	0	0	503	512	507	31	0	
4	0	0	0	0	0	507	512	509	31	0	
5	0	0	0	0	0	507	510	508	31	0	
6	0	0	0	0	0	505	511	505	31	0	
7	0	0	0	0	0	505	513	510	31	0	
8	0	0	0	0	0	505	512	511	32	0	
9	0	0	0	0	0	505	514	511	32	0	
10	0	0	0	0	1	505	515	511	31	0	
11	0	0	0	0	0	503	513	511	31	0	
12	0	0	0	0	0	504	513	510	31	0	
13	0	0	0	0	0	506	515	510	31	0	
14	0	0	0	0	0	504	511	508	31	0	
15	0	0	0	0	0	506	513	509	31	0	
0	0	0	0	0	0	506	510	508	31	0	
1	0	0	0	0	0	508	511	509	31	0	
2	0	0	0	0	1	507	509	511	31	0	
3	0	0	0	0	0	504	512	515	31	0	
4	0	0	0	0	0	504	512	511	32	0	
5	0	0	0	0	0	507	514	506	32	0	
6	0	0	0	0	0	508	512	509	32	0	
7	0	0	0	0	0	506	511	506	32	0	
8	0	0	0	0	0	506	512	507	31	0	
9	0	0	0	0	0	504	511	508	31	0	
10	0	0	0	0	1	505	513	509	31	0	
11	0	0	0	0	0	504	509	508	31	0	
12	0	0	0	0	0	504	511	508	31	0	
13	0	0	0	0	0	504	507	511	31	0	
14	0	0	0	0	0	505	509	510	31	0	
15	0	0	0	0	0	505	511	508	31	0	
0	0	0	0	0	0	504	511	508	31	0	
1	0	0	0	0	0	508	512	509	31	0	
2	0	0	0	0	1	505	512	510	31	0	
3	0	0	0	0	0	502	512	510	31	0	
4	0	0	0	0	0	504	513	507	31	0	
5	0	0	0	0	0	503	513	508	31	0	
6	0	0	0	0	0	504	510	509	31	0	
7	0	0	0	0	0	504	512	508	31	0	
8	0	0	0	0	0	505	512	510	31	0	
9	0	0	0	0	0	506	513	511	32	0	
10	0	0	0	0	1	507	512	510	31	0	
11	0	0	0	0	0	507	512	510	32	0	
12	0	0	0	0	0	507	513	511	32	0	
13	0	0	0	0	0	504	511	509	32	0	
14	0	0	0	0	0	507	512	509	31	0	
15	0	0	0	0	0	504	514	507	31	0	
0	0	0	0	0	0	503	513	511	32	0	
1	0	0	0	0	0	504	513	510	31	0	
2	0	0	0	0	1	505	513	508	31	0	
3	0	0	0	0	0	505	511	508	31	0	
4	0	0	0	0	0	504	511	510	31	0	
5	0	0	0	0	0	504	511	509	31	0	
6	0	0	0	0	0	504	512	509	31	0	
7	0	0	0	0	0	508	510	507	31	0	
8	0	0	0	0	0	507	513	506	31	0	
9	0	0	0	0	0	506	511	507	31	0	
10	0	0	0	0	1	504	512	510	31	0	
11	0	0	0	0	0	504	513	510	31	0	
12	0	0	0	0	0	504	515	513	31	0	
13	0	0	0	0	0	504	513	512	31	0	
14	0	0	0	0	0	504	510	511	31	0	
15	0	0	0	0	0	505	513	506	31	0	
0	0	0	0	0	0	504	512	508	31	0	
1	0	0	0	0	0	504	511	508	31	0	
2	0	0	0	0	1	504	512	506	32	0	
3	0	0	0	0	0	504	510	509	32	0	
4	0	0	0	0	0	505	512	512	31	0	
5	0	0	0	0	0	507	514	512	31	0	
6	0	0	0	0	0	508	511	508	31	0	
7	0	0	0	0	0	508	512	510	31	0	
8	0	0	0	0	0	506	512	509	31	0	
9	0	0	0	0	0	504	512	507	31	0	
10	0	0	0	0	1	504	512	508	31	0	
11	0	0	0	0	0	506	509	509	31	0	
12	0	0	0	0	0	504	511	508	32	0	
13	0	0	0	0	0	504	512	509	31	0	
14	0	0	0	0	0	505	513	508	31	0	
15	0	0	0	0	0	505	512	509	31	0	
0	0	0	0	0	0	505	512	510	31	0	
1	0	0	0	0	0	506	513	509	31	0	
2	0	0	0	0	0	505	512	510	31	0	
3	0	0	0	0	0	505	511	510	31	0	
4	0	0	0	0	0	506	512	506	31	0	
5	0	0	0	0	0	507	511	507	31	0	
6	0	0	0	0	0	504	513	507	32	0	
7	0	0	0	0	0	505	512	507	31	0	
8	0	0	0	0	0	504	510	508	31	0	
9	0	0	0	0	0	504	511	505	31	0	
10	0	0	0	0	0	506	512	508	31	0	
11	0	0	0	0	0	504	513	509	31	0	
12	0	0	0	0	0	505	514	510	31	0	
13	0	0	0	0	0	506	513	510	31	0	
14	0	0	0	0	0	505	510	508	31	0	
15	0	0	0	0	0	502	510	512	31	0	
0	0	0	0	0	0	505	511	514	31	0	
1	0	0	0	0	0	505	512	511	31	0	
2	0	0	0	0	1	505	513	505	31	0	
3	0	0	0	0	0	506	512	507	31	0	
4	0	0	0	0	0	506	511	509	31	0	
5	0	0	0	0	0	503	512	510	31	0	
6	0	0	0	0	0	505	511	513	32	0	
7	0	0	0	0	0	505	513	508	31	0	
8	0	0	0	0	0	504	512	510	31	0	
9	0	0	0	0	0	506	512	510	31	0	
10	0	0	0	0	1	505	515	507	31	0	
11	0	0	0	0	0	507	512	508	31	0	
12	0	0	0	0	0	507	515	508	31	0	
13	0	0	0	0	0	506	513	508	31	0	
14	0	0	0	0	0	504	512	509	31	0	
15	0	0	0	0	0	506	512	508	31	0	
0	0	0	0	0	0	505	513	511	31	0	
1	0	0	0	0	0	504	512	510	31	0	
2	0	0	0	0	1	505	513	511	31	0	
3	0	0	0	0	0	504	511	508	31	0	
4	0	0	0	0	0	507	512	508	31	0	
5	0	0	0	0	0	505	513	509	31	0	
6	0	0	0	0	0	505	511	509	31	0	
7	0	0	0	0	0	508	512	509	32	0	
8	0	0	0	0	0	507	512	511	31	0	
9	0	0	0	0	0	504	513	510	31	0	
10	0	0	0	0	1	505	512	510	31	0	
11	0	0	0	0	0	504	513	508	31	0	
12	0	0	0	0	0	505	514	509	31	0	
13	0	0	0	0	0	504	511	508	31	0	
14	0	0	0	0	0	506	513	509	31	0	
15	0	0	0	0	0	505	510	510	31	0	
0	0	0	0	0	0	501	510	510	32	0	
1	0	0	0	0	0	503	511	511	32	0	
2	0	0	0	0	1	504	512	511	32	0	
3	0	0	0	0	0	506	512	509	31	0	
4	0	0	0	0	0	504	513	508	31	0	
5	0	0	0	0	0	507	512	509	31	0	
6	0	0	0	0	0	508	510	508	31	0	
7	0	0	0	0	0	508	511	506	31	0	
8	0	0	0	0	0	507	511	508	31	0	
9	0	0	0	0	0	504	511	509	31	0	
10	0	0	0	0	1	504	513	511	32	0	
11	0	0	0	0	0	506	513	509	31	0	
12	0	0	0	0	0	504	514	506	31	0	
13	0	0	0	0	0	504	515	506	31	0	
14	0	0	0	0	0	503	514	510	31	0	
15	0	0	0	0	0	505	512	508	31	0	
0	0	0	0	0	0	505	511	510	31	0	
1	0	0	0	0	0	504	512	511	31	0	
2	0	0	0	0	1	504	511	511	32	0	
3	0	0	0	0	0	503	512	510	32	0	
4	0	0	0	0	0	505	512	511	32	0	
5	0	0	0	0	0	504	512	510	31	0	
6	0	0	0	0	0	504	512	508	31	0	
7	0	0	0	0	0	505	512	507	31	0	
8	0	0	0	0	0	506	511	508	31	0	
9	0	0	0	0	0	506	514	511	31	0	
10	0	0	0	0	1	507	513	508	31	0	
11	0	0	0	0	0	508	513	509	31	0	
12	0	0	0	0	0	507	513	510	31	0	
13	0	0	0	0	0	504	513	508	31	0	
14	0	0	0	0	0	504	512	510	31	0	
15	0	0	0	0	0	505	512	508	31	0	
0	0	0	0	0	0	505	510	507	31	0	
1	0	0	0	0	0	505	511	507	31	0	
2	0	0	0	0	1	502	514	508	31	0	
3	0	0	0	0	0	504	512	508	31	0	
4	0	0	0	0	0	505	512	508	31	0	
5	0	0	0	0	0	504	512	511	31	0	
6	0	0	0	0	0	504	512	510	31	0	
7	0	0	0	0	0	505	513	508	31	0	
8	0	0	0	0	0	504	512	509	31	0	
9	0	0	0	0	0	505	511	508	31	0	
10	0	0	0	0	1	506	511	510	31	0	
11	0	0	0	0	0	508	512	507	32	0	
12	0	0	0	0	0	508	512	508	31	0	
13	0	0	0	0	0	504	513	511	31	0	
14	0	0	0	0	0	505	510	511	31	0	
15	0	0	0	0	0	505	511	511	32	0	
0	0	0	0	0	0	505	512	509	31	0	
1	0	0	0	0	0	504	512	506	31	0	
2	0	0	0	0	1	507	512	509	31	0	
3	0	0	0	0	0	507	513	510	31	0	
4	0	0	0	0	0	505	513	509	31	0	
5	0	0	0	0	0	504	511	510	31	0	
6	0	0	0	0	0	503	510	510	31	0	
7	0	0	0	0	0	504	511	511	31	0	
8	0	0	0	0	0	504	512	509	32	0	
9	0	0	0	0	0	505	512	509	31	0	
10	0	0	0	0	1	505	513	508	31	0	
11	0	0	0	0	0	504	510	510	31	0	
12	0	0	0	0	0	504	512	512	31	0	
13	0	0	0	0	0	506	511	510	31	0	
14	0	0	0	0	0	505	514	511	31	0	
15	0	0	0	0	0	506	511	508	31	0	
0	0	0	0	0	0	505	512	508	31	0	
1	0	0	0	0	0	505	511	508	31	0	
2	0	0	0	0	1	504	511	510	31	0	
3	0	0	0	0	0	505	512	508	31	0	
4	0	0	0	0	0	505	512	507	31	0	
5	0	0	0	0	0	504	512	510	31	0	
6	0	0	0	0	0	504	513	509	31	0	
7	0	0	0	0	0	505	510	507	31	0	
8	0	0	0	0	0	503	513	505	31	0	
9	0	0	0	0	0	504	512	506	31	0	
10	0	0	0	0	1	506	513	507	31	0	
11	0	0	0	0	0	504	512	509	31	0	
12	0	0	0	0	0	507	513	511	31	0	
13	0	0	0	0	0	506	512	510	31	0	
14	0	0	0	0	0	505	514	511	31	0	
15	0	0	0	0	0	505	513	512	31	0	
0	0	0	0	0	0	505	512	507	31	0	
1	0	0	0	0	0	505	512	507	31	0	
2	0	0	0	0	1	506	512	508	31	0	
3	0	0	0	0	0	504	512	508	32	0	
4	0	0	0	0	0	504	511	509	32	0	
5	0	0	0	0	0	504	512	512	31	0	
6	0	0	0	0	0	504	513	511	31	0	
7	0	0	0	0	0	505	511	510	31	0	
8	0	0	0	0	0	505	516	508	31	0	
9	0	0	0	0	0	507	512	511	31	0	
10	0	0	0	0	1	507	512	509	31	0	
11	0	0	0	0	0	506	510	508	31	0	
12	0	0	0	0	0	507	511	509	31	0	
13	0	0	0	0	0	505	512	508	31	0	
14	0	0	0	0	0	504	512	510	31	0	
15	0	0	0	0	0	505	512	509	31	0	
0	0	0	0	0	0	504	512	510	31	0	
1	0	0	0	0	0	505	509	510	31	0	
2	0	0	0	0	1	504	511	508	31	0	
3	0	0	0	0	0	505	511	509	31	0	
4	0	0	0	0	0	506	512	511	32	0	
5	0	0	0	0	0	506	513	510	32	0	
6	0	0	0	0	0	507	512	509	31	0	
7	0	0	0	0	0	505	511	507	31	0	
8	0	0	0	0	0	506	512	508	31	0	
9	0	0	0	0	0	505	513	507	31	0	
10	0	0	0	0	1	503	514	507	31	0	
11	0	0	0	0	0	502	514	508	31	0	
12	0	0	0	0	0	504	512	510	31	0	
13	0	0	0	0	0	503	513	512	31	0	
14	0	0	0	0	0	503	511	510	31	0	
15	0	0	0	0	0	504	511	508	31	0	
0	0	0	0	0	0	505	511	507	31	0	
1	0	0	0	0	0	506	510	508	31	0	
2	0	0	0	0	1	504	511	509	31	0	
3	0	0	0	0	0	505	513	510	31	0	
4	0	0	0	0	0	505	512	511	31	0	
5	0	0	0	0	0	504	512	509	31	0	
6	0	0	0	0	0	504	511	509	31	0	
7	0	0	0	0	0	504	508	510	31	0	
8	0	0	0	0	0	506	511	511	31	0	
9	0	0	0	0	0	506	511	510	31	0	
10	0	0	0	0	1	507	515	509	31	0	
11	0	0	0	0	0	507	512	510	31	0	
12	0	0	0	0	0	504	514	515	31	0	
13	0	0	0	0	0	506	512	510	31	0	
14	0	0	0	0	0	504	512	510	31	0	
15	0	0	0	0	0	504	513	510	31	0	
0	0	0	0	0	0	504	513	509	31	0	
1	0	0	0	0	0	506	511	508	31	0	
2	0	0	0	0	1	508	511	505	31	0	
3	0	0	0	0	0	506	511	505	31	0	
4	0	0	0	0	0	505	511	504	31	0	
5	0	0	0	0	0	501	512	505	31	0	
6	0	0	0	0	0	504	512	506	31	0	
7	0	0	0	0	0	503	514	505	31	0	
8	0	0	0	0	0	507	513	508	31	0	
9	0	0	0	0	0	506	512	507	31	0	
10	0	0	0	0	1	505	513	508	31	0	
11	0	0	0	0	0	505	512	509	31	0	
12	0	0	0	0	0	504	513	511	31	0	
13	0	0	0	0	0	505	510	511	32	0	
14	0	0	0	0	0	504	510	513	32	0	
15	0	0	0	0	0	507	511	512	32	0	
0	0	0	0	0	0	504	511	513	31	0	
1	0	0	0	0	0	506	511	512	32	0	
2	0	0	0	0	1	504	510	510	31	0	
3	0	0	0	0	0	503	513	512	31	0	
4	0	0	0	0	0	502	515	509	31	0	
5	0	0	0	0	0	504	514	510	31	0	
6	0	0	0	0	0	506	512	509	31	0	
7	0	0	0	0	0	508	512	512	32	0	
8	0	0	0	0	0	507	513	510	31	0	
9	0	0	0	0	0	507	512	510	31	0	
10	0	0	0	0	1	508	513	508	31	0	
11	0	0	0	0	0	504	511	508	31	0	
12	0	0	0	0	0	506	513	508	31	0	
13	0	0	0	0	0	505	512	507	31	0	
14	0	0	0	0	0	505	511	508	31	0	
15	0	0	0	0	0	505	511	509	31	0	
0	0	0	0	0	0	508	511	505	31	0	
1	0	0	0	0	0	505	513	506	31	0	
2	0	0	0	0	1	504	512	507	31	0	
3	0	0	0	0	0	501	511	507	31	0	
4	0	0	0	0	0	503	510	511	32	0	
5	0	0	0	0	0	504	512	512	32	0	
6	0	0	0	0	0	503	510	512	32	0	
7	0	0	0	0	0	504	510	509	31	0	
8	0	0	0	0	0	504	513	511	31	0	
9	0	0	0	0	0	502	511	509	31	0	
10	0	0	0	0	0	504	512	511	31	0	
11	0	0	0	0	0	505	511	509	31	0	
12	0	0	0	0	0	507	512	510	31	0	
13	0	0	0	0	0	507	513	510	31	0	
14	0	0	0	0	0	507	511	510	31	0	
15	0	0	0	0	0	504	513	510	31	0	
0	0	0	0	0	0	505	513	507	31	0	
1	0	0	0	0	0	506	513	508	31	0	
2	0	0	0	0	0	505	512	508	31	0	
3	0	0	0	0	0	506	512	506	31	0	
4	0	0	0	0	0	504	512	507	31	0	
5	0	0	0	0	0	505	511	508	31	0	
6	0	0	0	0	0	504	512	510	31	0	
7	0	0	0	0	0	505	511	512	31	0	
8	0	0	0	0	0	504	511	513	31	0	
9	0	0	0	0	0	504	508	512	32	0	
10	0	0	0	0	0	504	511	514	32	0	
11	0	0	0	0	0	508	512	514	32	0	
12	0	0	0	0	0	506	511	513	32	0	
13	0	0	0	0	0	505	512	512	31	0	
14	0	0	0	0	0	506	514	507	31	0	
15	0	0	0	0	0	504	511	504	31	0	
0	0	0	0	0	0	505	512	503	31	0	
1	0	0	0	0	0	504	512	503	31	0	
2	0	0	0	0	1	503	510	499	31	0	
3	0	0	0	0	0	504	513	503	31	0	
4	0	0	0	0	0	506	511	507	31	0	
5	0	0	0	0	0	504	512	510	31	0	
6	0	0	0	0	0	505	512	508	31	0	
7	0	0	0	0	0	505	514	508	31	0	
8	0	0	0	0	0	506	515	507	32	0	
9	0	0	0	0	0	507	514	507	32	0	
10	0	0	0	0	1	506	515	510	32	0	
11	0	0	0	0	0	504	514	514	31	0	
12	0	0	0	0	0	505	511	512	31	0	
13	0	0	0	0	0	508	511	513	31	0	
14	0	0	0	0	0	508	512	510	31	0	
15	0	0	0	0	0	505	514	507	31	0	
0	0	0	0	0	0	505	511	506	31	0	
1	0	0	0	0	0	502	510	508	31	0	
2	0	0	0	0	1	502	511	508	31	0	
3	0	0	0	0	0	505	509	509	31	0	
4	0	0	0	0	0	503	510	510	31	0	
5	0	0	0	0	0	502	511	511	31	0	
6	0	0	0	0	0	505	512	512	32	0	
7	0	0	0	0	0	504	512	513	32	0	
8	0	0	0	0	0	505	511	513	32	0	
9	0	0	0	0	0	505	512	512	31	0	
10	0	0	0	0	1	504	513	512	31	0	
11	0	0	0	0	0	504	511	510	31	0	
12	0	0	0	0	0	506	514	510	31	0	
13	0	0	0	0	0	506	513	512	31	0	
14	0	0	0	0	0	507	512	513	31	0	
15	0	0	0	0	0	506	512	513	31	0	
0	0	0	0	0	0	507	513	509	31	0	
1	0	0	0	0	0	505	513	505	31	0	
2	0	0	0	0	1	507	512	499	31	0	
3	0	0	0	0	0	506	512	499	31	0	
4	0	0	0	0	0	504	509	499	31	0	
5	0	0	0	0	0	505	512	503	31	0	
6	0	0	0	0	0	508	513	508	31	0	
7	0	0	0	0	0	505	513	513	32	0	
8	0	0	0	0	0	504	513	514	32	0	
9	0	0	0	0	0	505	512	515	32	0	
10	0	0	0	0	1	506	511	513	32	0	
11	0	0	0	0	0	505	511	511	31	0	
12	0	0	0	0	0	505	512	509	31	0	
13	0	0	0	0	0	505	511	510	31	0	
14	0	0	0	0	0	506	512	508	31	0	
15	0	0	0	0	0	505	512	507	31	0	
0	0	0	0	0	0	504	512	508	31	0	
1	0	0	0	0	0	505	511	510	31	0	
2	0	0	0	0	1	504	514	512	31	0	
3	0	0	0	0	0	504	512	511	32	0	
4	0	0	0	0	0	504	513	510	31	0	
5	0	0	0	0	0	503	513	508	31	0	
6	0	0	0	0	0	504	514	508	31	0	
7	0	0	0	0	0	503	512	509	31	0	
8	0	0	0	0	0	504	511	511	31	0	
9	0	0	0	0	0	507	513	510	31	0	
10	0	0	0	0	1	506	514	508	31	0	
11	0	0	0	0	0	505	511	509	31	0	
12	0	0	0	0	0	505	511	511	32	0	
13	0	0	0	0	0	508	510	511	32	0	
14	0	0	0	0	0	508	511	512	31	0	
15	0	0	0	0	0	506	511	513	31	0	
0	0	0	0	0	0	507	510	509	31	0	
1	0	0	0	0	0	506	512	507	31	0	
2	0	0	0	0	1	505	513	506	31	0	
3	0	0	0	0	0	505	512	504	31	0	
4	0	0	0	0	0	503	509	508	31	0	
5	0	0	0	0	0	504	512	511	31	0	
6	0	0	0	0	0	503	512	510	31	0	
7	0	0	0	0	0	504	513	508	31	0	
8	0	0	0	0	0	504	512	507	31	0	
9	0	0	0	0	0	501	513	506	32	0	
10	0	0	0	0	1	504	511	507	32	0	
11	0	0	0	0	0	504	512	507	31	0	
12	0	0	0	0	0	508	513	509	31	0	
13	0	0	0	0	0	508	512	508	31	0	
14	0	0	0	0	0	507	511	510	31	0	
15	0	0	0	0	0	508	513	510	31	0	
0	0	0	0	0	0	506	512	508	31	0	
1	0	0	0	0	0	507	512	510	31	0	
2	0	0	0	0	1	507	511	509	32	0	
3	0	0	0	0	0	507	508	508	31	0	
4	0	0	0	0	0	504	510	511	32	0	
5	0	0	0	0	0	504	510	510	32	0	
6	0	0	0	0	0	503	511	507	31	0	
7	0	0	0	0	0	505	516	506	31	0	
8	0	0	0	0	0	504	516	507	31	0	
9	0	0	0	0	0	505	513	510	31	0	
10	0	0	0	0	1	505	510	513	32	0	
11	0	0	0	0	0	506	510	514	32	0	
12	0	0	0	0	0	506	512	512	32	0	
13	0	0	0	0	0	504	510	510	32	0	
14	0	0	0	0	0	504	514	509	32	0	
15	0	0	0	0	0	504	513	505	31	0	
0	0	0	0	0	0	503	511	506	31	0	
1	0	0	0	0	0	505	512	502	31	0	
2	0	0	0	0	1	503	514	502	31	0	
3	0	0	0	0	0	505	511	504	31	0	
4	0	0	0	0	0	503	511	505	31	0	
5	0	0	0	0	0	505	511	510	31	0	
6	0	0	0	0	0	504	511	512	31	0	
7	0	0	0	0	0	505	513	512	32	0	
8	0	0	0	0	0	505	515	510	32	0	
9	0	0	0	0	0	505	516	512	32	0	
10	0	0	0	0	1	507	513	513	32	0	
11	0	0	0	0	0	505	511	511	32	0	
12	0	0	0	0	0	505	511	509	32	0	
13	0	0	0	0	0	506	509	513	31	0	
14	0	0	0	0	0	504	512	513	31	0	
15	0	0	0	0	0	505	513	513	31	0	
0	0	0	0	0	0	506	512	511	31	0	
1	0	0	0	0	0	507	512	510	31	0	
2	0	0	0	0	1	507	511	509	31	0	
3	0	0	0	0	0	510	511	506	31	0	
4	0	0	0	0	0	508	514	503	31	0	
5	0	0	0	0	0	504	511	505	31	0	
6	0	0	0	0	0	505	512	507	31	0	
7	0	0	0	0	0	504	510	510	31	0	
8	0	0	0	0	0	504	513	509	31	0	
9	0	0	0	0	0	504	513	515	31	0	
10	0	0	0	0	1	504	513	516	32	0	
11	0	0	0	0	0	503	510	514	32	0	
12	0	0	0	0	0	502	512	513	32	0	
13	0	0	0	0	0	502	514	510	32	0	
14	0	0	0	0	0	507	511	505	31	0	
15	0	0	0	0	0	505	512	505	31	0	
0	0	0	0	0	0	506	512	514	32	0	
1	0	0	0	0	0	504	515	518	32	0	
2	0	0	0	0	1	510	512	512	32	0	
3	0	0	0	0	0	511	511	508	32	0	
4	0	0	0	0	0	510	514	508	31	0	
5	0	0	0	0	0	507	516	515	31	0	
6	0	0	0	0	0	504	515	509	30	0	
7	0	0	0	0	0	506	511	499	30	0	
8	0	0	0	0	0	505	510	489	30	0	
9	0	0	0	0	0	505	509	487	30	0	
10	0	0	0	0	1	503	508	493	31	0	
11	0	0	0	0	0	505	509	498	32	0	
12	0	0	0	0	0	504	512	506	32	0	
13	0	0	0	0	0	505	512	512	31	0	
14	0	0	0	0	0	502	515	523	31	0	
15	0	0	0	0	0	504	512	520	31	0	
0	0	0	0	0	0	504	511	518	31	0	
1	0	0	0	0	0	504	510	516	31	0	
2	0	0	0	0	1	507	509	516	32	0	
3	0	0	0	0	0	502	510	519	32	0	
4	0	0	0	0	0	504	512	514	32	0	
5	0	0	0	0	0	506	513	513	32	0	
6	0	0	0	0	0	504	514	515	32	0	
7	0	0	0	0	0	505	514	515	32	0	
8	0	0	0	0	0	504	512	511	32	0	
9	0	0	0	0	0	504	513	517	32	0	
10	0	0	0	0	1	502	512	520	31	0	
11	0	0	0	0	0	504	512	512	31	0	
12	0	0	0	0	0	508	512	503	31	0	
13	0	0	0	0	0	510	508	497	30	0	
14	0	0	0	0	0	505	512	493	31	0	
15	0	0	0	0	0	503	510	494	32	0	
0	0	0	0	0	0	507	510	487	32	0	
1	0	0	0	0	0	505	513	486	32	0	
2	0	0	0	0	1	504	515	499	32	0	
3	0	0	0	0	0	503	514	518	32	0	
4	0	0	0	0	0	505	514	527	32	0	
5	0	0	0	0	0	506	515	523	32	0	
6	0	0	0	0	0	504	513	520	32	0	
7	0	0	0	0	0	503	512	518	31	0	
8	0	0	0	0	0	505	513	504	31	0	
9	0	0	0	0	0	508	510	489	31	0	
10	0	0	0	0	1	504	508	502	31	0	
11	0	0	0	0	0	503	510	521	31	0	
12	0	0	0	0	0	505	514	519	31	0	
13	0	0	0	0	0	504	513	512	31	0	
14	0	0	0	0	0	503	512	517	32	0	
15	0	0	0	0	0	504	513	516	32	0	
0	0	0	0	0	0	504	512	515	32	0	
1	0	0	0	0	0	505	512	513	31	0	
2	0	0	0	0	1	510	509	488	31	0	
3	0	0	0	0	0	511	512	480	32	0	
4	0	0	0	0	0	504	516	513	31	0	
5	0	0	0	0	0	501	516	544	31	0	
6	0	0	0	0	0	507	515	534	31	0	
7	0	0	0	0	0	503	514	519	32	0	
8	0	0	0	0	0	503	509	514	33	0	
9	0	0	0	0	0	504	509	519	32	0	
10	0	0	0	0	1	502	515	519	31	0	
11	0	0	0	0	0	507	512	508	31	0	
12	0	0	0	0	0	508	513	478	30	0	
13	0	0	0	0	0	510	507	482	31	0	
14	0	0	0	0	0	503	507	502	31	0	
15	0	0	0	0	0	503	510	508	32	0	
0	0	0	0	0	0	503	514	505	31	0	
1	0	0	0	0	0	501	512	509	30	0	
2	0	0	0	0	0	502	510	512	31	0	
3	0	0	0	0	0	504	508	511	31	0	
4	0	0	0	0	0	507	506	496	32	0	
5	0	0	0	0	0	510	507	497	32	0	
6	0	0	0	0	0	508	508	512	32	0	
7	0	0	0	0	0	504	515	512	32	0	
8	0	0	0	0	0	503	519	508	32	0	
9	0	0	0	0	0	505	524	504	31	0	
10	0	0	0	0	0	506	521	514	30	0	
11	0	0	0	0	0	505	515	525	30	0	
12	0	0	0	0	0	506	512	519	30	0	
13	0	0	0	0	0	509	510	504	30	0	
14	0	0	0	0	0	508	508	480	30	0	
15	0	0	0	0	0	507	509	475	31	0	
0	0	0	0	0	0	500	511	503	32	0	
1	0	0	0	0	0	502	515	525	32	0	
2	0	0	0	0	0	504	512	522	32	0	
3	0	0	0	0	0	510	508	495	32	0	
4	0	0	0	0	0	506	510	509	32	0	
5	0	0	0	0	0	498	508	536	31	0	
6	0	0	0	0	0	504	510	535	32	0	
7	0	0	0	0	0	505	511	526	31	0	
8	0	0	0	0	0	504	513	496	31	0	
9	0	0	0	0	0	507	514	481	32	0	
10	0	0	0	0	1	504	512	502	32	0	
11	0	0	0	0	0	505	515	494	31	0	
12	0	0	0	0	0	508	515	489	31	0	
13	0	0	0	0	0	500	511	509	32	0	
14	0	0	0	0	0	501	515	536	32	0	
15	0	0	0	0	0	499	515	545	32	0	
0	0	0	0	0	0	507	511	525	32	0	
1	0	0	0	0	0	504	510	514	32	0	
2	0	0	0	0	1	500	514	534	31	0	
3	0	0	0	0	0	505	514	534	31	0	
4	0	0	0	0	0	507	511	513	31	0	
5	0	0	0	0	0	507	513	505	31	0	
6	0	0	0	0	0	510	511	507	31	0	
7	0	0	0	0	0	511	508	501	31	0	
8	0	0	0	0	0	510	511	496	31	0	
9	0	0	0	0	0	506	513	489	31	0	
10	0	0	0	0	1	508	511	476	31	0	
11	0	0	0	0	0	506	512	481	31	0	
12	0	0	0	0	0	502	511	512	32	0	
13	0	0	0	0	0	499	512	516	31	0	
14	0	0	0	0	0	500	513	512	31	0	
15	0	0	0	0	0	504	511	508	31	0	
0	0	0	0	0	0	505	510	508	31	0	
1	0	0	0	0	0	505	505	510	31	0	
2	0	0	0	0	1	507	508	513	31	0	
3	0	0	0	0	0	505	512	519	32	0	
4	0	0	0	0	0	505	514	518	32	0	
5	0	0	0	0	0	505	514	512	32	0	
6	0	0	0	0	0	505	515	505	31	0	
7	0	0	0	0	0	505	517	507	32	0	
8	0	0	0	0	0	507	515	508	31	0	
9	0	0	0	0	0	505	515	509	31	0	
10	0	0	0	0	1	501	516	513	31	0	
11	0	0	0	0	0	500	512	513	31	0	
12	0	0	0	0	0	499	511	513	32	0	
13	0	0	0	0	0	503	511	512	32	0	
14	0	0	0	0	0	506	512	512	32	0	
15	0	0	0	0	0	508	513	508	31	0	
0	0	0	0	0	0	507	513	508	31	0	
1	0	0	0	0	0	508	514	506	31	0	
2	0	0	0	0	1	505	514	504	31	0	
3	0	0	0	0	0	507	515	504	31	0	
4	0	0	0	0	0	507	511	505	31	0	
5	0	0	0	0	0	508	511	502	31	0	
6	0	0	0	0	0	508	511	504	31	0	
7	0	0	0	0	0	505	512	513	31	0	
8	0	0	0	0	0	503	510	515	32	0	
9	0	0	0	0	0	505	511	511	31	0	
10	0	0	0	0	1	507	512	511	31	0	
11	0	0	0	0	0	505	513	510	31	0	
12	0	0	0	0	0	507	513	507	31	0	
13	0	0	0	0	0	505	513	507	31	0	
14	0	0	0	0	0	505	513	512	31	0	
15	0	0	0	0	0	503	511	513	31	0	
0	0	0	0	0	0	503	512	510	31	0	
1	0	0	0	0	0	504	509	510	31	0	
2	0	0	0	0	1	504	512	507	32	0	
3	0	0	0	0	0	506	511	507	31	0	
4	0	0	0	0	0	503	509	508	32	0	
5	0	0	0	0	0	500	512	510	31	0	
6	0	0	0	0	0	505	511	511	31	0	
7	0	0	0	0	0	505	511	510	31	0	
8	0	0	0	0	0	508	511	508	31	0	
9	0	0	0	0	0	510	513	508	31	0	
10	0	0	0	0	1	509	514	508	31	0	
11	0	0	0	0	0	505	513	509	31	0	
12	0	0	0	0	0	504	512	512	31	0	
13	0	0	0	0	0	504	511	513	31	0	
14	0	0	0	0	0	503	512	512	31	0	
15	0	0	0	0	0	502	513	513	31	0	
0	0	0	0	0	0	505	513	511	31	0	
1	0	0	0	0	0	506	513	508	31	0	
2	0	0	0	0	1	505	513	507	31	0	
3	0	0	0	0	0	507	514	507	31	0	
4	0	0	0	0	0	504	511	508	31	0	
5	0	0	0	0	0	502	512	509	31	0	
6	0	0	0	0	0	504	509	508	32	0	
7	0	0	0	0	0	509	510	510	32	0	
8	0	0	0	0	0	506	508	507	31	0	
9	0	0	0	0	0	507	511	502	32	0	
10	0	0	0	0	1	507	511	503	31	0	
11	0	0	0	0	0	505	511	508	31	0	
12	0	0	0	0	0	503	511	511	31	0	
13	0	0	0	0	0	502	510	511	31	0	
14	0	0	0	0	0	504	513	512	31	0	
15	0	0	0	0	0	504	515	512	31	0	
0	0	0	0	0	0	505	514	511	31	0	
1	0	0	0	0	0	507	515	511	31	0	
2	0	0	0	0	1	508	512	509	31	0	
3	0	0	0	0	0	503	511	508	31	0	
4	0	0	0	0	0	505	511	510	31	0	
5	0	0	0	0	0	505	511	508	32	0	
6	0	0	0	0	0	504	510	511	32	0	
7	0	0	0	0	0	504	513	511	31	0	
8	0	0	0	0	0	502	515	511	31	0	
9	0	0	0	0	0	504	514	513	31	0	
10	0	0	0	0	1	504	513	512	31	0	
11	0	0	0	0	0	507	512	509	31	0	
12	0	0	0	0	0	508	512	508	31	0	
13	0	0	0	0	0	507	510	509	31	0	
14	0	0	0	0	0	508	510	499	31	0	
15	0	0	0	0	0	507	512	502	31	0	
0	0	0	0	0	0	504	510	511	31	0	
1	0	0	0	0	0	502	510	512	31	0	
2	0	0	0	0	1	504	511	511	31	0	
3	0	0	0	0	0	504	512	509	31	0	
4	0	0	0	0	0	505	515	509	31	0	
5	0	0	0	0	0	506	516	509	31	0	
6	0	0	0	0	0	506	513	509	31	0	
7	0	0	0	0	0	505	512	510	31	0	
8	0	0	0	0	0	505	513	509	31	0	
9	0	0	0	0	0	505	513	510	31	0	
10	0	0	0	0	1	505	513	509	32	0	
11	0	0	0	0	0	506	515	509	31	0	
12	0	0	0	0	0	505	513	507	31	0	
13	0	0	0	0	0	505	511	509	31	0	
14	0	0	0	0	0	505	512	512	31	0	
15	0	0	0	0	0	507	511	511	31	0	
0	0	0	0	0	0	508	511	508	31	0	
1	0	0	0	0	0	507	512	508	31	0	
2	0	0	0	0	1	501	512	508	31	0	
3	0	0	0	0	0	502	508	509	32	0	
4	0	0	0	0	0	500	509	510	31	0	
5	0	0	0	0	0	504	511	510	31	0	
6	0	0	0	0	0	503	511	507	31	0	
7	0	0	0	0	0	505	510	515	32	0	
8	0	0	0	0	0	502	511	516	32	0	
9	0	0	0	0	0	504	514	513	32	0	
10	0	0	0	0	1	504	513	512	31	0	
11	0	0	0	0	0	506	513	510	31	0	
12	0	0	0	0	0	506	515	508	31	0	
13	0	0	0	0	0	507	513	506	31	0	
14	0	0	0	0	0	510	515	506	31	0	
15	0	0	0	0	0	507	514	504	31	0	
0	0	0	0	0	0	507	512	503	31	0	
1	0	0	0	0	0	505	511	504	31	0	
2	0	0	0	0	1	505	509	509	31	0	
3	0	0	0	0	0	506	510	511	31	0	
4	0	0	0	0	0	503	512	515	31	0	
5	0	0	0	0	0	505	512	512	31	0	
6	0	0	0	0	0	507	511	509	31	0	
7	0	0	0	0	0	505	511	508	31	0	
8	0	0	0	0	0	506	509	508	31	0	
9	0	0	0	0	0	505	511	510	32	0	
10	0	0	0	0	1	505	513	509	32	0	
11	0	0	0	0	0	506	512	508	31	0	
12	0	0	0	0	0	506	511	510	32	0	
13	0	0	0	0	0	504	511	509	31	0	
14	0	0	0	0	0	504	512	508	31	0	
15	0	0	0	0	0	505	512	507	31	0	
0	0	0	0	0	0	507	514	508	31	0	
1	0	0	0	0	0	504	513	508	31	0	
2	0	0	0	0	1	504	513	510	31	0	
3	0	0	0	0	0	504	512	514	31	0	
4	0	0	0	0	0	502	511	514	31	0	
5	0	0	0	0	0	504	512	512	31	0	
6	0	0	0	0	0	505	515	508	31	0	
7	0	0	0	0	0	507	516	505	31	0	
8	0	0	0	0	0	504	513	506	31	0	
9	0	0	0	0	0	505	512	508	31	0	
10	0	0	0	0	1	503	512	509	31	0	
11	0	0	0	0	0	504	510	509	31	0	
12	0	0	0	0	0	506	514	507	31	0	
13	0	0	0	0	0	504	510	509	31	0	
14	0	0	0	0	0	508	511	507	31	0	
15	0	0	0	0	0	506	512	511	31	0	
0	0	0	0	0	0	504	509	510	31	0	
1	0	0	0	0	0	504	509	510	31	0	
2	0	0	0	0	1	504	511	511	32	0	
3	0	0	0	0	0	504	513	508	32	0	
4	0	0	0	0	0	507	512	509	32	0	
5	0	0	0	0	0	505	513	509	31	0	
6	0	0	0	0	0	503	512	510	32	0	
7	0	0	0	0	0	504	513	509	31	0	
8	0	0	0	0	0	506	512	512	32	0	
9	0	0	0	0	0	504	514	509	31	0	
10	0	0	0	0	1	506	514	511	31	0	
11	0	0	0	0	0	505	512	511	31	0	
12	0	0	0	0	0	504	510	511	31	0	
13	0	0	0	0	0	504	508	508	31	0	
14	0	0	0	0	0	506	511	507	31	0	
15	0	0	0	0	0	507	511	507	31	0	
0	0	0	0	0	0	507	511	508	31	0	
1	0	0	0	0	0	505	510	510	31	0	
2	0	0	0	0	1	502	511	513	31	0	
3	0	0	0	0	0	503	513	511	31	0	
4	0	0	0	0	0	504	512	509	31	0	
5	0	0	0	0	0	505	511	509	31	0	
6	0	0	0	0	0	505	510	512	31	0	
7	0	0	0	0	0	505	511	508	31	0	
8	0	0	0	0	0	505	509	505	31	0	
9	0	0	0	0	0	504	510	502	31	0	
10	0	0	0	0	0	504	510	503	31	0	
11	0	0	0	0	0	505	511	504	31	0	
12	0	0	0	0	0	507	513	507	31	0	
13	0	0	0	0	0	505	514	513	31	0	
14	0	0	0	0	0	505	513	511	31	0	
15	0	0	0	0	0	502	513	511	31	0	
0	0	0	0	0	0	504	515	509	31	0	
1	0	0	0	0	0	506	513	508	31	0	
2	0	0	0	0	0	504	512	505	31	0	
3	0	0	0	0	0	503	511	507	31	0	
4	0	0	0	0	0	504	511	510	31	0	
5	0	0	0	0	0	502	509	510	31	0	
6	0	0	0	0	0	504	511	510	31	0	
7	0	0	0	0	0	504	511	510	31	0	
8	0	0	0	0	0	505	514	507	31	0	
9	0	0	0	0	0	506	512	507	31	0	
10	0	0	0	0	0	508	514	511	31	0	
11	0	0	0	0	0	507	514	512	31	0	
12	0	0	0	0	0	505	515	513	31	0	
13	0	0	0	0	0	506	515	515	32	0	
14	0	0	0	0	0	505	513	516	32	0	
15	0	0	0	0	0	505	513	514	32	0	
0	0	0	0	0	0	505	512	510	32	0	
1	0	0	0	0	0	507	511	510	31	0	
2	0	0	0	0	1	505	514	508	31	0	
3	0	0	0	0	0	504	516	510	31	0	
4	0	0	0	0	0	505	515	507	31	0	
5	0	0	0	0	0	504	513	505	31	0	
6	0	0	0	0	0	508	512	506	31	0	
7	0	0	0	0	0	505	510	506	31	0	
8	0	0	0	0	0	507	511	509	31	0	
9	0	0	0	0	0	508	511	510	31	0	
10	0	0	0	0	1	503	510	510	32	0	
11	0	0	0	0	0	504	511	511	32	0	
12	0	0	0	0	0	502	513	513	31	0	
13	0	0	0	0	0	504	511	508	32	0	
14	0	0	0	0	0	506	513	503	31	0	
15	0	0	0	0	0	502	511	509	31	0	
0	0	0	0	0	0	504	512	513	31	0	
1	0	0	0	0	0	501	510	514	31	0	
2	0	0	0	0	1	504	512	512	31	0	
3	0	0	0	0	0	506	512	511	31	0	
4	0	0	0	0	0	507	513	509	32	0	
5	0	0	0	0	0	509	511	507	31	0	
6	0	0	0	0	0	508	513	508	31	0	
7	0	0	0	0	0	507	512	508	31	0	
8	0	0	0	0	0	507	512	509	31	0	
9	0	0	0	0	0	507	513	507	31	0	
10	0	0	0	0	1	504	513	511	31	0	
11	0	0	0	0	0	502	511	511	31	0	
12	0	0	0	0	0	504	510	510	32	0	
13	0	0	0	0	0	505	508	508	31	0	
14	0	0	0	0	0	505	513	507	31	0	
15	0	0	0	0	0	506	512	506	31	0	
0	0	0	0	0	0	504	511	508	31	0	
1	0	0	0	0	0	504	512	509	31	0	
2	0	0	0	0	1	503	511	510	31	0	
3	0	0	0	0	0	505	511	508	31	0	
4	0	0	0	0	0	507	512	509	31	0	
5	0	0	0	0	0	504	512	514	31	0	
6	0	0	0	0	0	503	512	514	31	0	
7	0	0	0	0	0	504	513	510	31	0	
8	0	0	0	0	0	505	514	505	31	0	
9	0	0	0	0	0	507	511	504	31	0	
10	0	0	0	0	1	508	511	506	31	0	
11	0	0	0	0	0	505	511	502	31	0	
12	0	0	0	0	0	506	513	503	31	0	
13	0	0	0	0	0	504	515	504	31	0	
14	0	0	0	0	0	502	512	508	31	0	
15	0	0	0	0	0	505	513	509	31	0	
0	0	0	0	0	0	506	511	510	32	0	
1	0	0	0	0	0	505	510	511	31	0	
2	0	0	0	0	1	503	510	510	31	0	
3	0	0	0	0	0	505	512	511	31	0	
4	0	0	0	0	0	505	512	509	31	0	
5	0	0	0	0	0	508	512	507	31	0	
6	0	0	0	0	0	506	514	510	31	0	
7	0	0	0	0	0	504	511	513	31	0	
8	0	0	0	0	0	504	512	513	31	0	
9	0	0	0	0	0	507	514	511	31	0	
10	0	0	0	0	1	505	514	508	31	0	
11	0	0	0	0	0	507	515	506	31	0	
12	0	0	0	0	0	506	512	505	32	0	
13	0	0	0	0	0	507	512	508	32	0	
14	0	0	0	0	0	504	515	511	32	0	
15	0	0	0	0	0	504	512	510	31	0	
0	0	0	0	0	0	504	512	511	31	0	
1	0	0	0	0	0	504	511	511	31	0	
2	0	0	0	0	1	502	510	508	31	0	
3	0	0	0	0	0	502	509	512	31	0	
4	0	0	0	0	0	502	513	511	31	0	
5	0	0	0	0	0	504	510	510	31	0	
6	0	0	0	0	0	508	511	508	31	0	
7	0	0	0	0	0	507	513	511	31	0	
8	0	0	0	0	0	507	514	510	31	0	
9	0	0	0	0	0	508	512	509	31	0	
10	0	0	0	0	1	507	512	509	31	0	
11	0	0	0	0	0	506	513	509	31	0	
12	0	0	0	0	0	504	515	509	31	0	
13	0	0	0	0	0	504	512	507	31	0	
14	0	0	0	0	0	506	511	504	31	0	
15	0	0	0	0	0	503	511	507	31	0	
0	0	0	0	0	0	504	510	507	31	0	
1	0	0	0	0	0	504	510	508	31	0	
2	0	0	0	0	1	505	510	508	31	0	
3	0	0	0	0	0	507	511	511	31	0	
4	0	0	0	0	0	504	512	514	31	0	
5	0	0	0	0	0	502	511	513	31	0	
6	0	0	0	0	0	505	511	508	31	0	
7	0	0	0	0	0	505	513	510	31	0	
8	0	0	0	0	0	504	513	511	31	0	
9	0	0	0	0	0	501	513	508	31	0	
10	0	0	0	0	1	504	513	508	31	0	
11	0	0	0	0	0	506	513	508	31	0	
12	0	0	0	0	0	505	513	513	32	0	
13	0	0	0	0	0	505	512	510	31	0	
14	0	0	0	0	0	507	510	509	31	0	
15	0	0	0	0	0	504	510	509	32	0	
0	0	0	0	0	0	507	511	508	32	0	
1	0	0	0	0	0	505	511	508	31	0	
2	0	0	0	0	1	506	511	509	32	0	
3	0	0	0	0	0	505	512	510	32	0	
4	0	0	0	0	0	505	513	508	31	0	
5	0	0	0	0	0	505	515	511	31	0	
6	0	0	0	0	0	505	512	511	31	0	
7	0	0	0	0	0	504	512	511	32	0	
8	0	0	0	0	0	504	512	508	31	0	
9	0	0	0	0	0	506	515	508	31	0	
10	0	0	0	0	1	505	514	508	31	0	
11	0	0	0	0	0	508	511	511	31	0	
12	0	0	0	0	0	502	511	512	31	0	
13	0	0	0	0	0	502	514	510	32	0	
14	0	0	0	0	0	503	514	512	31	0	
15	0	0	0	0	0	505	511	509	31	0	
0	0	0	0	0	0	506	512	508	31	0	
1	0	0	0	0	0	507	515	508	31	0	
2	0	0	0	0	1	507	510	508	31	0	
3	0	0	0	0	0	506	510	508	31	0	
4	0	0	0	0	0	503	512	508	31	0	
5	0	0	0	0	0	504	508	508	31	0	
6	0	0	0	0	0	505	512	509	31	0	
7	0	0	0	0	0	505	514	507	31	0	
8	0	0	0	0	0	507	513	508	31	0	
9	0	0	0	0	0	507	512	507	31	0	
10	0	0	0	0	1	507	512	508	31	0	
11	0	0	0	0	0	506	511	510	31	0	
12	0	0	0	0	0	507	509	511	32	0	
13	0	0	0	0	0	504	511	511	32	0	
14	0	0	0	0	0	505	512	511	32	0	
15	0	0	0	0	0	504	516	511	32	0	
0	0	0	0	0	0	503	512	511	31	0	
1	0	0	0	0	0	504	510	510	31	0	
2	0	0	0	0	1	504	512	510	31	0	
3	0	0	0	0	0	502	511	510	31	0	
4	0	0	0	0	0	502	515	512	31	0	
5	0	0	0	0	0	504	513	509	31	0	
6	0	0	0	0	0	506	514	508	31	0	
7	0	0	0	0	0	503	512	505	31	0	
8	0	0	0	0	0	504	511	508	31	0	
9	0	0	0	0	0	504	510	509	31	0	
10	0	0	0	0	1	503	512	511	32	0	
11	0	0	0	0	0	504	512	513	32	0	
12	0	0	0	0	0	505	513	509	32	0	
13	0	0	0	0	0	511	515	508	32	0	
14	0	0	0	0	0	510	514	504	31	0	
15	0	0	0	0	0	508	512	506	31	0	
0	0	0	0	0	0	507	514	508	31	0	
1	0	0	0	0	0	505	511	510	31	0	
2	0	0	0	0	1	505	511	511	31	0	
3	0	0	0	0	0	504	510	510	31	0	
4	0	0	0	0	0	504	511	510	31	0	
5	0	0	0	0	0	508	513	508	31	0	
6	0	0	0	0	0	504	511	507	31	0	
7	0	0	0	0	0	504	512	506	31	0	
8	0	0	0	0	0	504	511	507	31	0	
9	0	0	0	0	0	504	511	508	31	0	
10	0	0	0	0	1	505	511	508	31	0	
11	0	0	0	0	0	504	511	512	31	0	
12	0	0	0	0	0	507	512	512	31	0	
13	0	0	0	0	0	504	513	513	31	0	
14	0	0	0	0	0	505	512	511	31	0	
15	0	0	0	0	0	505	514	509	31	0	
0	0	0	0	0	0	504	515	505	31	0	
1	0	0	0	0	0	505	513	501	31	0	
2	0	0	0	0	1	504	513	504	31	0	
3	0	0	0	0	0	505	510	508	31	0	
4	0	0	0	0	0	504	511	511	32	0	
5	0	0	0	0	0	504	510	505	31	0	
6	0	0	0	0	0	505	510	514	31	0	
7	0	0	0	0	0	503	509	515	32	0	
8	0	0	0	0	0	504	509	514	31	0	
9	0	0	0	0	0	505	514	510	31	0	
10	0	0	0	0	1	505	512	511	31	0	
11	0	0	0	0	0	505	511	511	31	0	
12	0	0	0	0	0	507	513	509	31	0	
13	0	0	0	0	0	507	513	509	31	0	
14	0	0	0	0	0	506	514	510	31	0	
15	0	0	0	0	0	505	513	506	31	0	
0	0	0	0	0	0	506	512	504	31	0	
1	0	0	0	0	0	505	513	505	31	0	
2	0	0	0	0	1	505	512	508	32	0	
3	0	0	0	0	0	505	514	509	32	0	
4	0	0	0	0	0	505	513	509	31	0	
5	0	0	0	0	0	505	515	510	31	0	
6	0	0	0	0	0	504	511	510	31	0	
7	0	0	0	0	0	504	513	511	31	0	
8	0	0	0	0	0	505	513	511	31	0	
9	0	0	0	0	0	503	512	511	31	0	
10	0	0	0	0	1	504	510	515	31	0	
11	0	0	0	0	0	504	509	516	31	0	
12	0	0	0	0	0	505	512	510	31	0	
13	0	0	0	0	0	507	512	508	31	0	
14	0	0	0	0	0	505	512	508	31	0	
15	0	0	0	0	0	505	511	509	31	0	
0	0	0	0	0	0	504	511	510	32	0	
1	0	0	0	0	0	506	511	507	31	0	
2	0	0	0	0	1	502	510	506	31	0	
3	0	0	0	0	0	503	510	505	31	0	
4	0	0	0	0	0	505	512	508	31	0	
5	0	0	0	0	0	504	511	509	31	0	
6	0	0	0	0	0	504	512	508	31	0	
7	0	0	0	0	0	507	512	508	31	0	
8	0	0	0	0	0	504	512	511	31	0	
9	0	0	0	0	0	506	514	507	31	0	
10	0	0	0	0	0	507	515	507	31	0	
11	0	0	0	0	0	507	513	503	32	0	
12	0	0	0	0	0	504	512	502	31	0	
13	0	0	0	0	0	503	510	505	31	0	
14	0	0	0	0	0	504	511	508	31	0	
15	0	0	0	0	0	503	512	509	31	0	
0	0	0	0	0	0	507	513	508	31	0	
1	0	0	0	0	0	506	514	516	32	0	
2	0	0	0	0	0	507	513	518	32	0	
3	0	0	0	0	0	507	510	517	31	0	
4	0	0	0	0	0	507	512	514	31	0	
5	0	0	0	0	0	505	515	513	31	0	
6	0	0	0	0	0	508	516	509	31	0	
7	0	0	0	0	0	505	515	504	31	0	
8	0	0	0	0	0	505	512	499	31	0	
9	0	0	0	0	0	504	511	503	31	0	
10	0	0	0	0	1	503	511	506	31	0	
11	0	0	0	0	0	504	509	511	32	0	
12	0	0	0	0	0	505	512	512	31	0	
13	0	0	0	0	0	507	512	514	31	0	
14	0	0	0	0	0	504	509	512	32	0	
15	0	0	0	0	0	505	510	508	31	0	
0	0	0	0	0	0	504	511	503	31	0	
1	0	0	0	0	0	505	509	503	31	0	
2	0	0	0	0	1	502	510	501	31	0	
3	0	0	0	0	0	505	513	504	31	0	
4	0	0	0	0	0	503	511	508	32	0	
5	0	0	0	0	0	502	510	513	32	0	
6	0	0	0	0	0	503	511	514	32	0	
7	0	0	0	0	0	508	513	512	32	0	
8	0	0	0	0	0	505	514	513	32	0	
9	0	0	0	0	0	508	513	514	31	0	
10	0	0	0	0	1	504	513	512	31	0	
11	0	0	0	0	0	505	514	514	31	0	
12	0	0	0	0	0	504	514	514	31	0	
13	0	0	0	0	0	504	510	508	31	0	
14	0	0	0	0	0	506	510	506	31	0	
15	0	0	0	0	0	507	508	511	31	0	
0	0	0	0	0	0	508	513	511	31	0	
1	0	0	0	0	0	507	513	511	31	0	
2	0	0	0	0	1	505	514	508	32	0	
3	0	0	0	0	0	504	512	510	32	0	
4	0	0	0	0	0	504	513	512	32	0	
5	0	0	0	0	0	504	513	508	31	0	
6	0	0	0	0	0	506	513	505	31	0	
7	0	0	0	0	0	506	515	508	31	0	
8	0	0	0	0	0	505	514	510	32	0	
9	0	0	0	0	0	506	512	507	31	0	
10	0	0	0	0	1	510	512	505	31	0	
11	0	0	0	0	0	508	511	504	32	0	
12	0	0	0	0	0	507	512	509	31	0	
13	0	0	0	0	0	504	512	512	31	0	
14	0	0	0	0	0	502	512	511	31	0	
15	0	0	0	0	0	503	511	509	31	0	
0	0	0	0	0	0	504	512	507	31	0	
1	0	0	0	0	0	503	513	508	31	0	
2	0	0	0	0	1	504	511	512	32	0	
3	0	0	0	0	0	505	509	515	32	0	
4	0	0	0	0	0	503	513	515	32	0	
5	0	0	0	0	0	504	509	513	31	0	
6	0	0	0	0	0	504	511	513	31	0	
7	0	0	0	0	0	505	511	508	31	0	
8	0	0	0	0	0	505	512	511	31	0	
9	0	0	0	0	0	508	513	508	31	0	
10	0	0	0	0	1	510	514	508	31	0	
11	0	0	0	0	0	507	512	504	31	0	
12	0	0	0	0	0	507	511	507	31	0	
13	0	0	0	0	0	505	512	507	31	0	
14	0	0	0	0	0	504	513	505	32	0	
15	0	0	0	0	0	502	513	510	31	0	
0	0	0	0	0	0	501	514	513	32	0	
1	0	0	0	0	0	504	512	513	32	0	
2	0	0	0	0	1	505	512	515	31	0	
3	0	0	0	0	0	505	514	511	32	0	
4	0	0	0	0	0	508	512	507	31	0	
5	0	0	0	0	0	509	514	507	32	0	
6	0	0	0	0	0	508	512	508	32	0	
7	0	0	0	0	0	508	513	510	32	0	
8	0	0	0	0	0	506	512	510	31	0	
9	0	0	0	0	0	505	512	505	31	0	
10	0	0	0	0	1	504	512	505	31	0	
11	0	0	0	0	0	504	515	505	31	0	
12	0	0	0	0	0	505	512	506	31	0	
13	0	0	0	0	0	501	510	509	31	0	
14	0	0	0	0	0	503	512	508	31	0	
15	0	0	0	0	0	506	509	511	31	0	
0	0	0	0	0	0	506	510	513	31	0	
1	0	0	0	0	0	504	510	511	31	0	
2	0	0	0	0	1	505	512	509	31	0	
3	0	0	0	0	0	507	511	509	31	0	
4	0	0	0	0	0	505	512	507	31	0	
5	0	0	0	0	0	507	513	508	31	0	
6	0	0	0	0	0	506	512	508	31	0	
7	0	0	0	0	0	508	512	505	31	0	
8	0	0	0	0	0	506	512	507	32	0	
9	0	0	0	0	0	505	512	511	31	0	
10	0	0	0	0	1	507	512	511	31	0	
11	0	0	0	0	0	505	515	510	31	0	
12	0	0	0	0	0	507	510	513	31	0	
13	0	0	0	0	0	505	514	511	31	0	
14	0	0	0	0	0	503	511	510	31	0	
15	0	0	0	0	0	505	510	511	31	0	
0	0	0	0	0	0	504	511	508	31	0	
1	0	0	0	0	0	504	511	509	31	0	
2	0	0	0	0	1	501	511	506	31	0	
3	0	0	0	0	0	500	511	506	31	0	
4	0	0	0	0	0	501	512	509	31	0	
5	0	0	0	0	0	504	515	511	31	0	
6	0	0	0	0	0	505	512	510	31	0	
7	0	0	0	0	0	505	512	511	31	0	
8	0	0	0	0	0	510	512	515	32	0	
9	0	0	0	0	0	507	509	514	32	0	
10	0	0	0	0	1	504	511	514	31	0	
11	0	0	0	0	0	505	514	513	31	0	
12	0	0	0	0	0	504	512	511	32	0	
13	0	0	0	0	0	505	512	505	32	0	
14	0	0	0	0	0	507	512	503	32	0	
15	0	0	0	0	0	506	511	503	31	0	
0	0	0	0	0	0	503	510	505	31	0	
1	0	0	0	0	0	504	511	505	31	0	
2	0	0	0	0	1	504	512	508	31	0	
3	0	0	0	0	0	502	513	511	31	0	
4	0	0	0	0	0	505	512	511	31	0	
5	0	0	0	0	0	507	512	510	31	0	
6	0	0	0	0	0	509	512	511	31	0	
7	0	0	0	0	0	507	513	509	31	0	
8	0	0	0	0	0	507	512	508	31	0	
9	0	0	0	0	0	508	512	506	32	0	
10	0	0	0	0	1	507	512	507	32	0	
11	0	0	0	0	0	505	513	511	32	0	
12	0	0	0	0	0	502	515	514	31	0	
13	0	0	0	0	0	505	513	511	31	0	
14	0	0	0	0	0	506	511	513	31	0	
15	0	0	0	0	0	503	511	510	32	0	
0	0	0	0	0	0	505	514	511	32	0	
1	0	0	0	0	0	504	511	505	31	0	
2	0	0	0	0	1	504	511	504	31	0	
3	0	0	0	0	0	504	512	505	31	0	
4	0	0	0	0	0	508	513	505	31	0	
5	0	0	0	0	0	506	513	508	31	0	
6	0	0	0	0	0	507	513	511	31	0	
7	0	0	0	0	0	505	511	512	31	0	
8	0	0	0	0	0	504	509	511	31	0	
9	0	0	0	0	0	504	511	515	32	0	
10	0	0	0	0	1	503	513	511	32	0	
11	0	0	0	0	0	502	511	510	31	0	
12	0	0	0	0	0	504	512	508	31	0	
13	0	0	0	0	0	507	513	507	32	0	
14	0	0	0	0	0	508	512	505	31	0	
15	0	0	0	0	0	509	511	505	31	0	
0	0	0	0	0	0	510	514	505	31	0	
1	0	0	0	0	0	508	515	509	31	0	
2	0	0	0	0	1	507	515	510	31	0	
3	0	0	0	0	0	503	512	509	31	0	
4	0	0	0	0	0	504	512	507	31	0	
5	0	0	0	0	0	504	511	510	31	0	
6	0	0	0	0	0	504	510	508	31	0	
7	0	0	0	0	0	504	512	510	32	0	
8	0	0	0	0	0	502	512	511	31	0	
9	0	0	0	0	0	503	511	513	31	0	
10	0	0	0	0	1	505	511	510	31	0	
11	0	0	0	0	0	507	512	509	31	0	
12	0	0	0	0	0	505	514	509	31	0	
13	0	0	0	0	0	504	512	511	31	0	
14	0	0	0	0	0	507	510	510	31	0	
15	0	0	0	0	0	506	511	510	32	0	
0	0	0	0	0	0	503	510	509	31	0	
1	0	0	0	0	0	504	508	511	32	0	
2	0	0	0	0	1	505	510	512	31	0	
3	0	0	0	0	0	507	513	511	31	0	
4	0	0	0	0	0	506	513	509	31	0	
5	0	0	0	0	0	506	513	507	31	0	
6	0	0	0	0	0	505	513	508	31	0	
7	0	0	0	0	0	505	515	510	32	0	
8	0	0	0	0	0	504	515	509	31	0	
9	0	0	0	0	0	500	512	512	31	0	
10	0	0	0	0	1	502	511	512	32	0	
11	0	0	0	0	0	503	510	508	31	0	
12	0	0	0	0	0	504	513	509	31	0	
13	0	0	0	0	0	505	512	508	31	0	
14	0	0	0	0	0	506	512	507	31	0	
15	0	0	0	0	0	507	511	508	31	0	
0	0	0	0	0	0	507	512	507	31	0	
1	0	0	0	0	0	508	510	510	31	0	
2	0	0	0	0	1	505	508	507	31	0	
3	0	0	0	0	0	508	509	508	31	0	
4	0	0	0	0	0	506	509	510	31	0	
5	0	0	0	0	0	504	511	507	31	0	
6	0	0	0	0	0	503	513	510	31	0	
7	0	0	0	0	0	506	513	510	31	0	
8	0	0	0	0	0	505	513	510	31	0	
9	0	0	0	0	0	508	511	508	31	0	
10	0	0	0	0	1	505	512	513	32	0	
11	0	0	0	0	0	505	511	513	32	0	
12	0	0	0	0	0	504	511	513	32	0	
13	0	0	0	0	0	504	514	518	31	0	
14	0	0	0	0	0	504	512	514	31	0	
15	0	0	0	0	0	504	511	513	32	0	
0	0	0	0	0	0	504	514	512	32	0	
1	0	0	0	0	0	507	515	507	32	0	
2	0	0	0	0	1	508	513	503	31	0	
3	0	0	0	0	0	508	513	498	31	0	
4	0	0	0	0	0	508	511	496	31	0	
5	0	0	0	0	0	505	511	498	31	0	
6	0	0	0	0	0	503	512	499	31	0	
7	0	0	0	0	0	503	511	503	31	0	
8	0	0	0	0	0	503	509	507	31	0	
9	0	0	0	0	0	504	512	512	31	0	
10	0	0	0	0	1	504	510	518	31	0	
11	0	0	0	0	0	503	509	517	32	0	
12	0	0	0	0	0	503	513	515	31	0	
13	0	0	0	0	0	502	510	514	32	0	
14	0	0	0	0	0	504	510	513	31	0	
15	0	0	0	0	0	508	512	508	31	0	
0	0	0	0	0	0	507	513	504	31	0	
1	0	0	0	0	0	508	513	506	31	0	
2	0	0	0	0	0	505	515	508	31	0	
3	0	0	0	0	0	505	513	511	31	0	
4	0	0	0	0	0	506	512	509	31	0	
5	0	0	0	0	0	507	512	510	31	0	
6	0	0	0	0	0	504	513	512	31	0	
7	0	0	0	0	0	505	511	514	31	0	
8	0	0	0	0	0	507	513	510	31	0	
9	0	0	0	0	0	504	514	508	32	0	
10	0	0	0	0	0	507	514	510	32	0	
11	0	0	0	0	0	505	514	511	32	0	
12	0	0	0	0	0	504	511	511	32	0	
13	0	0	0	0	0	504	512	508	31	0	
14	0	0	0	0	0	503	511	509	32	0	
15	0	0	0	0	0	504	514	508	31	0	
0	0	0	0	0	0	505	512	509	31	0	
1	0	0	0	0	0	504	511	508	31	0	
2	0	0	0	0	0	504	512	506	31	0	
3	0	0	0	0	0	505	511	507	31	0	
4	0	0	0	0	0	506	512	509	31	0	
5	0	0	0	0	0	504	512	510	31	0	
6	0	0	0	0	0	506	511	511	31	0	
7	0	0	0	0	0	507	513	511	31	0	
8	0	0	0	0	0	503	511	510	31	0	
9	0	0	0	0	0	505	511	509	31	0	
10	0	0	0	0	1	505	511	508	31	0	
11	0	0	0	0	0	506	511	508	31	0	
12	0	0	0	0	0	504	510	511	31	0	
13	0	0	0	0	0	503	508	509	31	0	
14	0	0	0	0	0	505	511	508	31	0	
15	0	0	0	0	0	505	511	511	31	0	
0	0	0	0	0	0	506	514	510	32	0	
1	0	0	0	0	0	507	513	510	32	0	
2	0	0	0	0	1	505	514	508	31	0	
3	0	0	0	0	0	504	513	507	31	0	
4	0	0	0	0	0	507	512	505	31	0	
5	0	0	0	0	0	507	512	510	31	0	
6	0	0	0	0	0	507	511	508	31	0	
7	0	0	0	0	0	505	512	512	32	0	
8	0	0	0	0	0	504	513	509	32	0	
9	0	0	0	0	0	506	514	507	31	0	
10	0	0	0	0	1	505	512	508	32	0	
11	0	0	0	0	0	505	513	508	32	0	
12	0	0	0	0	0	506	514	511	31	0	
13	0	0	0	0	0	503	512	511	31	0	
14	0	0	0	0	0	504	511	511	31	0	
15	0	0	0	0	0	505	511	512	31	0	
0	0	0	0	0	0	503	509	511	31	0	
1	0	0	0	0	0	505	513	510	31	0	
2	0	0	0	0	1	506	512	509	31	0	
3	0	0	0	0	0	508	511	506	31	0	
4	0	0	0	0	0	506	512	504	31	0	
5	0	0	0	0	0	505	510	505	31	0	
6	0	0	0	0	0	504	512	508	32	0	
7	0	0	0	0	0	502	512	510	32	0	
8	0	0	0	0	0	502	515	513	32	0	
9	0	0	0	0	0	504	513	512	32	0	
10	0	0	0	0	1	504	511	512	32	0	
11	0	0	0	0	0	508	512	512	32	0	
12	0	0	0	0	0	504	510	512	32	0	
13	0	0	0	0	0	503	511	512	31	0	
14	0	0	0	0	0	505	511	510	31	0	
15	0	0	0	0	0	506	511	507	31	0	
0	0	0	0	0	0	504	510	506	31	0	
1	0	0	0	0	0	505	511	504	31	0	
2	0	0	0	0	1	507	513	504	31	0	
3	0	0	0	0	0	508	512	502	31	0	
4	0	0	0	0	0	507	512	504	31	0	
5	0	0	0	0	0	505	511	507	31	0	
6	0	0	0	0	0	505	512	509	31	0	
7	0	0	0	0	0	507	515	513	31	0	
8	0	0	0	0	0	506	511	515	32	0	
9	0	0	0	0	0	508	512	518	32	0	
10	0	0	0	0	1	504	515	515	32	0	
11	0	0	0	0	0	504	510	512	32	0	
12	0	0	0	0	0	504	511	511	32	0	
13	0	0	0	0	0	504	512	510	31	0	
14	0	0	0	0	0	506	511	512	32	0	
15	0	0	0	0	0	505	512	505	31	0	
0	0	0	0	0	0	503	514	506	31	0	
1	0	0	0	0	0	504	512	507	31	0	
2	0	0	0	0	1	505	510	504	31	0	
3	0	0	0	0	0	506	510	505	31	0	
4	0	0	0	0	0	502	512	505	31	0	
5	0	0	0	0	0	504	512	505	31	0	
6	0	0	0	0	0	507	513	506	31	0	
7	0	0	0	0	0	504	513	507	31	0	
8	0	0	0	0	0	506	512	509	32	0	
9	0	0	0	0	0	503	512	512	31	0	
10	0	0	0	0	1	504	511	511	31	0	
11	0	0	0	0	0	505	510	513	31	0	
12	0	0	0	0	0	506	514	512	32	0	
13	0	0	0	0	0	505	513	510	32	0	
14	0	0	0	0	0	504	513	510	31	0	
15	0	0	0	0	0	508	513	508	32	0	
0	0	0	0	0	0	505	512	509	32	0	
1	0	0	0	0	0	505	510	510	31	0	
2	0	0	0	0	1	506	512	512	32	0	
3	0	0	0	0	0	504	509	511	31	0	
4	0	0	0	0	0	505	510	511	31	0	
5	0	0	0	0	0	506	514	510	31	0	
6	0	0	0	0	0	505	515	511	31	0	
7	0	0	0	0	0	505	511	509	31	0	
8	0	0	0	0	0	507	510	508	31	0	
9	0	0	0	0	0	508	513	508	31	0	
10	0	0	0	0	1	507	513	508	31	0	
11	0	0	0	0	0	504	512	511	31	0	
12	0	0	0	0	0	505	513	511	31	0	
13	0	0	0	0	0	504	515	509	31	0	
14	0	0	0	0	0	505	513	508	31	0	
15	0	0	0	0	0	504	511	510	32	0	
0	0	0	0	0	0	505	511	509	31	0	
1	0	0	0	0	0	504	512	509	31	0	
2	0	0	0	0	1	505	511	511	31	0	
3	0	0	0	0	0	504	510	510	31	0	
4	0	0	0	0	0	504	513	509	31	0	
5	0	0	0	0	0	506	511	509	31	0	
6	0	0	0	0	0	504	513	510	31	0	
7	0	0	0	0	0	505	511	508	31	0	
8	0	0	0	0	0	506	511	510	31	0	
9	0	0	0	0	0	505	511	508	31	0	
10	0	0	0	0	1	505	510	509	31	0	
11	0	0	0	0	0	505	512	509	31	0	
12	0	0	0	0	0	507	513	507	31	0	
13	0	0	0	0	0	505	511	504	31	0	
14	0	0	0	0	0	504	512	506	31	0	
15	0	0	0	0	0	505	512	505	31	0	
0	0	0	0	0	0	504	513	506	31	0	
1	0	0	0	0	0	504	513	507	31	0	
2	0	0	0	0	1	505	513	508	32	0	
3	0	0	0	0	0	504	512	510	32	0	
4	0	0	0	0	0	503	511	510	31	0	
5	0	0	0	0	0	504	512	510	31	0	
6	0	0	0	0	0	505	514	511	31	0	
7	0	0	0	0	0	506	513	513	31	0	
8	0	0	0	0	0	504	510	512	31	0	
9	0	0	0	0	0	507	513	510	31	0	
10	0	0	0	0	1	508	511	508	31	0	
11	0	0	0	0	0	505	512	507	31	0	
12	0	0	0	0	0	505	512	510	31	0	
13	0	0	0	0	0	505	512	512	32	0	
14	0	0	0	0	0	506	512	510	32	0	
15	0	0	0	0	0	504	510	510	31	0	
0	0	0	0	0	0	505	512	512	31	0	
1	0	0	0	0	0	504	512	510	31	0	
2	0	0	0	0	1	504	512	508	31	0	
3	0	0	0	0	0	503	512	508	31	0	
4	0	0	0	0	0	507	511	510	31	0	
5	0	0	0	0	0	507	510	508	31	0	
6	0	0	0	0	0	508	513	507	31	0	
7	0	0	0	0	0	505	513	510	32	0	
8	0	0	0	0	0	505	513	514	32	0	
9	0	0	0	0	0	505	516	512	32	0	
10	0	0	0	0	1	505	512	510	31	0	
11	0	0	0	0	0	506	514	512	31	0	
12	0	0	0	0	0	508	513	510	31	0	
13	0	0	0	0	0	506	511	505	31	0	
14	0	0	0	0	0	504	510	505	31	0	
15	0	0	0	0	0	502	510	502	31	0	
0	0	0	0	0	0	504	510	508	31	0	
1	0	0	0	0	0	503	511	510	32	0	
2	0	0	0	0	1	507	511	513	32	0	
3	0	0	0	0	0	505	514	509	32	0	
4	0	0	0	0	0	505	513	508	31	0	
5	0	0	0	0	0	504	512	508	31	0	
6	0	0	0	0	0	505	514	508	31	0	
7	0	0	0	0	0	503	513	508	31	0	
8	0	0	0	0	0	507	510	506	31	0	
9	0	0	0	0	0	506	509	509	31	0	
10	0	0	0	0	1	506	511	508	31	0	
11	0	0	0	0	0	504	510	510	31	0	
12	0	0	0	0	0	504	511	507	31	0	
13	0	0	0	0	0	505	511	509	31	0	
14	0	0	0	0	0	504	511	509	31	0	
15	0	0	0	0	0	505	512	510	31	0	
0	0	0	0	0	0	504	512	512	31	0	
1	0	0	0	0	0	504	513	512	31	0	
2	0	0	0	0	1	505	515	508	32	0	
3	0	0	0	0	0	506	513	509	32	0	
4	0	0	0	0	0	508	511	509	32	0	
5	0	0	0	0	0	507	513	508	32	0	
6	0	0	0	0	0	509	512	508	31	0	
7	0	0	0	0	0	505	515	511	31	0	
8	0	0	0	0	0	505	515	510	31	0	
9	0	0	0	0	0	507	511	509	31	0	
10	0	0	0	0	1	506	511	511	31	0	
11	0	0	0	0	0	503	511	511	31	0	
12	0	0	0	0	0	505	513	512	32	0	
13	0	0	0	0	0	504	512	513	32	0	
14	0	0	0	0	0	506	512	512	32	0	
15	0	0	0	0	0	505	513	509	32	0	
0	0	0	0	0	0	504	513	507	31	0	
1	0	0	0	0	0	505	510	506	31	0	
2	0	0	0	0	1	504	511	504	31	0	
3	0	0	0	0	0	505	511	506	31	0	
4	0	0	0	0	0	507	512	508	31	0	
5	0	0	0	0	0	504	511	512	31	0	
6	0	0	0	0	0	504	513	511	31	0	
7	0	0	0	0	0	505	512	511	31	0	
8	0	0	0	0	0	502	515	505	31	0	
9	0	0	0	0	0	502	512	506	31	0	
10	0	0	0	0	1	503	511	508	31	0	
11	0	0	0	0	0	504	511	508	31	0	
12	0	0	0	0	0	506	511	506	31	0	
13	0	0	0	0	0	504	511	508	31	0	
14	0	0	0	0	0	507	511	510	32	0	
15	0	0	0	0	0	507	511	507	32	0	
0	0	0	0	0	0	505	513	508	31	0	
1	0	0	0	0	0	505	510	509	31	0	
2	0	0	0	0	1	503	511	511	31	0	
3	0	0	0	0	0	503	512	511	31	0	
4	0	0	0	0	0	504	510	512	31	0	
5	0	0	0	0	0	506	512	513	31	0	
6	0	0	0	0	0	506	513	512	31	0	
7	0	0	0	0	0	508	513	512	32	0	
8	0	0	0	0	0	508	514	511	32	0	
9	0	0	0	0	0	507	514	510	31	0	
10	0	0	0	0	0	505	515	510	31	0	
11	0	0	0	0	0	505	511	507	31	0	
12	0	0	0	0	0	505	511	510	31	0	
13	0	0	0	0	0	506	512	508	31	0	
14	0	0	0	0	0	504	510	510	31	0	
15	0	0	0	0	0	504	509	512	31	0	
0	0	0	0	0	0	507	510	510	32	0	
1	0	0	0	0	0	507	512	507	31	0	
2	0	0	0	0	0	505	512	507	32	0	
3	0	0	0	0	0	502	512	507	31	0	
4	0	0	0	0	0	502	512	505	31	0	
5	0	0	0	0	0	505	511	505	31	0	
6	0	0	0	0	0	505	512	508	31	0	
7	0	0	0	0	0	503	512	510	31	0	
8	0	0	0	0	0	505	511	508	31	0	
9	0	0	0	0	0	507	512	511	31	0	
10	0	0	0	0	0	506	513	511	31	0	
11	0	0	0	0	0	505	515	510	31	0	
12	0	0	0	0	0	506	511	508	31	0	
13	0	0	0	0	0	506	512	508	31	0	
14	0	0	0	0	0	508	510	510	31	0	
15	0	0	0	0	0	503	509	511	31	0	
0	0	0	0	0	0	504	511	507	31	0	
1	0	0	0	0	0	503	514	511	32	0	
2	0	0	0	0	1	505	510	514	32	0	
3	0	0	0	0	0	503	515	512	31	0	
4	0	0	0	0	0	504	513	514	32	0	
5	0	0	0	0	0	505	512	508	32	0	
6	0	0	0	0	0	507	513	510	31	0	
7	0	0	0	0	0	507	512	508	31	0	
8	0	0	0	0	0	504	512	506	31	0	
9	0	0	0	0	0	504	513	508	31	0	
10	0	0	0	0	1	504	513	508	31	0	
11	0	0	0	0	0	508	512	508	31	0	
12	0	0	0	0	0	505	515	506	31	0	
13	0	0	0	0	0	504	513	505	31	0	
14	0	0	0	0	0	501	511	507	31	0	
15	0	0	0	0	0	504	512	508	31	0	
0	0	0	0	0	0	506	510	508	31	0	
1	0	0	0	0	0	506	512	510	31	0	
2	0	0	0	0	1	507	511	510	31	0	
3	0	0	0	0	0	508	511	511	32	0	
4	0	0	0	0	0	507	511	512	31	0	
5	0	0	0	0	0	505	510	507	31	0	
6	0	0	0	0	0	505	511	508	31	0	
7	0	0	0	0	0	504	510	509	31	0	
8	0	0	0	0	0	504	510	510	31	0	
9	0	0	0	0	0	504	509	508	31	0	
10	0	0	0	0	1	506	510	507	31	0	
11	0	0	0	0	0	504	512	508	31	0	
12	0	0	0	0	0	505	511	509	31	0	
13	0	0	0	0	0	504	515	511	32	0	
14	0	0	0	0	0	504	513	509	32	0	
15	0	0	0	0	0	505	512	512	32	0	
0	0	0	0	0	0	505	510	508	32	0	
1	0	0	0	0	0	505	513	508	32	0	
2	0	0	0	0	1	505	513	507	32	0	
3	0	0	0	0	0	504	512	510	31	0	
4	0	0	0	0	0	505	515	513	31	0	
5	0	0	0	0	0	504	514	515	31	0	
6	0	0	0	0	0	503	513	511	31	0	
7	0	0	0	0	0	506	510	509	31	0	
8	0	0	0	0	0	503	512	507	31	0	
9	0	0	0	0	0	504	510	507	31	0	
10	0	0	0	0	1	505	509	509	31	0	
11	0	0	0	0	0	505	512	510	32	0	
12	0	0	0	0	0	504	512	511	32	0	
13	0	0	0	0	0	505	512	510	31	0	
14	0	0	0	0	0	505	512	510	31	0	
15	0	0	0	0	0	508	512	508	31	0	
0	0	0	0	0	0	508	514	507	31	0	
1	0	0	0	0	0	507	513	508	31	0	
2	0	0	0	0	1	505	514	505	31	0	
3	0	0	0	0	0	506	513	505	31	0	
4	0	0	0	0	0	504	516	509	31	0	
5	0	0	0	0	0	505	516	510	31	0	
6	0	0	0	0	0	507	515	511	31	0	
7	0	0	0	0	0	507	513	512	32	0	
8	0	0	0	0	0	506	513	509	32	0	
9	0	0	0	0	0	504	511	507	31	0	
10	0	0	0	0	1	505	512	511	31	0	
11	0	0	0	0	0	504	512	511	31	0	
12	0	0	0	0	0	505	509	508	31	0	
13	0	0	0	0	0	504	507	509	31	0	
14	0	0	0	0	0	504	511	510	31	0	
15	0	0	0	0	0	505	508	508	31	0	
0	0	0	0	0	0	504	512	508	31	0	
1	0	0	0	0	0	506	511	511	31	0	
2	0	0	0	0	1	505	513	511	32	0	
3	0	0	0	0	0	505	511	510	32	0	
4	0	0	0	0	0	505	513	511	31	0	
5	0	0	0	0	0	507	512	508	31	0	
6	0	0	0	0	0	504	510	504	31	0	
7	0	0	0	0	0	506	510	504	31	0	
8	0	0	0	0	0	506	510	507	31	0	
9	0	0	0	0	0	505	511	508	31	0	
10	0	0	0	0	1	505	514	510	31	0	
11	0	0	0	0	0	504	513	510	31	0	
12	0	0	0	0	0	504	514	512	32	0	
13	0	0	0	0	0	504	513	510	31	0	
14	0	0	0	0	0	504	513	508	31	0	
15	0	0	0	0	0	503	513	511	31	0	
0	0	0	0	0	0	505	513	508	31	0	
1	0	0	0	0	0	505	512	511	31	0	
2	0	0	0	0	1	505	512	511	32	0	
3	0	0	0	0	0	507	512	508	31	0	
4	0	0	0	0	0	506	511	510	31	0	
5	0	0	0	0	0	507	511	511	31	0	
6	0	0	0	0	0	505	512	511	31	0	
7	0	0	0	0	0	504	514	508	31	0	
8	0	0	0	0	0	503	512	508	31	0	
9	0	0	0	0	0	502	513	511	31	0	
10	0	0	0	0	1	503	512	510	31	0	
11	0	0	0	0	0	506	510	509	31	0	
12	0	0	0	0	0	506	510	507	31	0	
13	0	0	0	0	0	507	512	507	31	0	
14	0	0	0	0	0	506	513	509	31	0	
15	0	0	0	0	0	505	510	506	31	0	
0	0	0	0	0	0	507	513	509	31	0	
1	0	0	0	0	0	505	513	511	31	0	
2	0	0	0	0	1	505	512	510	31	0	
3	0	0	0	0	0	504	513	511	31	0	
4	0	0	0	0	0	504	513	509	31	0	
5	0	0	0	0	0	502	510	511	31	0	
6	0	0	0	0	0	503	513	511	31	0	
7	0	0	0	0	0	504	511	508	31	0	
8	0	0	0	0	0	505	512	512	31	0	
9	0	0	0	0	0	502	510	510	31	0	
10	0	0	0	0	1	502	514	509	31	0	
11	0	0	0	0	0	504	512	509	32	0	
12	0	0	0	0	0	505	512	510	32	0	
13	0	0	0	0	0	505	512	511	31	0	
14	0	0	0	0	0	505	512	511	31	0	
15	0	0	0	0	0	506	511	510	31	0	
0	0	0	0	0	0	507	514	508	31	0	
1	0	0	0	0	0	508	513	507	31	0	
2	0	0	0	0	1	508	511	506	31	0	
3	0	0	0	0	0	505	513	509	31	0	
4	0	0	0	0	0	507	513	509	31	0	
5	0	0	0	0	0	505	513	508	31	0	
6	0	0	0	0	0	504	512	509	32	0	
7	0	0	0	0	0	504	512	510	31	0	
8	0	0	0	0	0	506	512	507	31	0	
9	0	0	0	0	0	505	510	509	31	0	
10	0	0	0	0	1	504	508	508	31	0	
11	0	0	0	0	0	506	510	507	31	0	
12	0	0	0	0	0	506	510	508	31	0	
13	0	0	0	0	0	505	512	510	31	0	
14	0	0	0	0	0	506	508	505	31	0	
15	0	0	0	0	0	504	511	507	31	0	
0	0	0	0	0	0	504	513	508	31	0	
1	0	0	0	0	0	505	513	508	31	0	
2	0	0	0	0	1	505	511	508	31	0	
3	0	0	0	0	0	504	510	508	31	0	
4	0	0	0	0	0	504	509	510	31	0	
5	0	0	0	0	0	505	510	509	32	0	
6	0	0	0	0	0	504	510	512	32	0	
7	0	0	0	0	0	505	512	509	31	0	
8	0	0	0	0	0	503	512	509	31	0	
9	0	0	0	0	0	504	512	509	31	0	
10	0	0	0	0	1	506	513	510	31	0	
11	0	0	0	0	0	504	513	508	31	0	
12	0	0	0	0	0	505	511	508	31	0	
13	0	0	0	0	0	503	513	508	31	0	
14	0	0	0	0	0	503	511	507	31	0	
15	0	0	0	0	0	505	510	510	31	0	
0	0	0	0	0	0	508	514	510	31	0	
1	0	0	0	0	0	505	512	511	32	0	
2	0	0	0	0	1	505	513	510	31	0	
3	0	0	0	0	0	505	515	510	31	0	
4	0	0	0	0	0	508	515	509	31	0	
5	0	0	0	0	0	507	511	508	31	0	
6	0	0	0	0	0	506	513	510	31	0	
7	0	0	0	0	0	504	514	508	31	0	
8	0	0	0	0	0	507	513	510	31	0	
9	0	0	0	0	0	503	515	511	31	0	
10	0	0	0	0	1	504	512	511	31	0	
11	0	0	0	0	0	503	512	508	31	0	
12	0	0	0	0	0	505	514	510	31	0	
13	0	0	0	0	0	504	513	511	31	0	
14	0	0	0	0	0	504	510	509	31	0	
15	0	0	0	0	0	505	509	510	31	0	
0	0	0	0	0	0	504	513	508	31	0	
1	0	0	0	0	0	504	514	512	31	0	
2	0	0	0	0	1	505	512	510	31	0	
3	0	0	0	0	0	505	513	508	31	0	
4	0	0	0	0	0	505	513	509	31	0	
5	0	0	0	0	0	506	515	511	31	0	
6	0	0	0	0	0	505	512	512	32	0	
7	0	0	0	0	0	507	512	514	32	0	
8	0	0	0	0	0	505	512	511	32	0	
9	0	0	0	0	0	504	512	509	32	0	
10	0	0	0	0	1	504	514	509	31	0	
11	0	0	0	0	0	504	511	511	31	0	
12	0	0	0	0	0	504	512	511	31	0	
13	0	0	0	0	0	508	512	508	31	0	
14	0	0	0	0	0	508	513	508	31	0	
15	0	0	0	0	0	507	511	506	31	0	
0	0	0	0	0	0	504	511	509	31	0	
1	0	0	0	0	0	506	511	508	31	0	
2	0	0	0	0	1	505	512	512	31	0	
3	0	0	0	0	0	504	512	508	31	0	
4	0	0	0	0	0	504	514	507	31	0	
5	0	0	0	0	0	502	512	508	31	0	
6	0	0	0	0	0	505	512	511	31	0	
7	0	0	0	0	0	505	512	509	31	0	
8	0	0	0	0	0	504	512	508	31	0	
9	0	0	0	0	0	504	510	509	31	0	
10	0	0	0	0	1	504	512	511	31	0	
11	0	0	0	0	0	505	512	510	31	0	
12	0	0	0	0	0	506	511	508	31	0	
13	0	0	0	0	0	505	510	507	31	0	
14	0	0	0	0	0	505	509	507	31	0	
15	0	0	0	0	0	506	510	511	31	0	
0	0	0	0	0	0	505	513	509	31	0	
1	0	0	0	0	0	504	511	507	31	0	
2	0	0	0	0	1	505	513	507	31	0	
3	0	0	0	0	0	507	512	506	31	0	
4	0	0	0	0	0	505	511	509	31	0	
5	0	0	0	0	0	507	512	510	31	0	
6	0	0	0	0	0	505	510	509	31	0	
7	0	0	0	0	0	504	510	507	32	0	
8	0	0	0	0	0	505	514	509	31	0	
9	0	0	0	0	0	503	511	512	31	0	
10	0	0	0	0	0	505	515	510	31	0	
11	0	0	0	0	0	504	513	508	31	0	
12	0	0	0	0	0	504	513	510	31	0	
13	0	0	0	0	0	504	514	510	31	0	
14	0	0	0	0	0	507	513	508	32	0	
15	0	0	0	0	0	507	512	509	31	0	
0	0	0	0	0	0	506	512	508	31	0	
1	0	0	0	0	0	506	513	507	31	0	
2	0	0	0	0	0	506	511	507	31	0	
3	0	0	0	0	0	509	511	508	31	0	
4	0	0	0	0	0	507	511	507	31	0	
5	0	0	0	0	0	504	512	508	31	0	
6	0	0	0	0	0	501	514	510	31	0	
7	0	0	0	0	0	503	512	512	31	0	
8	0	0	0	0	0	503	511	511	31	0	
9	0	0	0	0	0	504	511	511	31	0	
10	0	0	0	0	1	503	511	508	31	0	
11	0	0	0	0	0	504	511	511	31	0	
12	0	0	0	0	0	505	510	510	31	0	
13	0	0	0	0	0	507	512	509	31	0	
14	0	0	0	0	0	506	512	511	32	0	
15	0	0	0	0	0	505	512	510	31	0	
0	0	0	0	0	0	504	513	512	31	0	
1	0	0	0	0	0	506	513	510	31	0	
2	0	0	0	0	1	505	511	509	31	0	
3	0	0	0	0	0	504	513	505	31	0	
4	0	0	0	0	0	505	512	510	31	0	
5	0	0	0	0	0	507	512	508	31	0	
6	0	0	0	0	0	505	511	506	31	0	
7	0	0	0	0	0	506	513	505	31	0	
8	0	0	0	0	0	507	514	505	31	0	
9	0	0	0	0	0	507	513	508	31	0	
10	0	0	0	0	1	506	509	507	31	0	
11	0	0	0	0	0	505	511	510	31	0	
12	0	0	0	0	0	502	510	513	31	0	
13	0	0	0	0	0	504	513	512	31	0	
14	0	0	0	0	0	504	513	509	31	0	
15	0	0	0	0	0	502	510	509	32	0	
0	0	0	0	0	0	505	511	508	31	0	
1	0	0	0	0	0	507	513	508	31	0	
2	0	0	0	0	1	505	512	508	31	0	
3	0	0	0	0	0	506	513	511	31	0	
4	0	0	0	0	0	505	512	510	31	0	
5	0	0	0	0	0	506	511	512	31	0	
6	0	0	0	0	0	505	511	508	31	0	
7	0	0	0	0	0	506	511	510	31	0	
8	0	0	0	0	0	504	512	508	31	0	
9	0	0	0	0	0	505	512	510	31	0	
10	0	0	0	0	1	504	512	511	32	0	
11	0	0	0	0	0	503	512	510	31	0	
12	0	0	0	0	0	506	513	511	31	0	
13	0	0	0	0	0	507	514	511	32	0	
14	0	0	0	0	0	506	511	509	31	0	
15	0	0	0	0	0	506	512	508	31	0	
0	0	0	0	0	0	504	510	508	31	0	
1	0	0	0	0	0	504	513	510	31	0	
2	0	0	0	0	1	505	511	510	31	0	
3	0	0	0	0	0	504	510	508	31	0	
4	0	0	0	0	0	505	515	510	31	0	
5	0	0	0	0	0	504	514	506	31	0	
6	0	0	0	0	0	506	515	508	31	0	
7	0	0	0	0	0	504	511	511	31	0	
8	0	0	0	0	0	505	512	508	31	0	
9	0	0	0	0	0	504	515	508	31	0	
10	0	0	0	0	1	505	515	507	31	0	
11	0	0	0	0	0	504	512	509	31	0	
12	0	0	0	0	0	505	511	509	31	0	
13	0	0	0	0	0	506	510	508	31	0	
14	0	0	0	0	0	506	512	508	31	0	
15	0	0	0	0	0	503	512	508	31	0	
0	0	0	0	0	0	501	511	512	31	0	
1	0	0	0	0	0	503	509	508	31	0	
2	0	0	0	0	1	504	509	510	31	0	
3	0	0	0	0	0	505	512	509	31	0	
4	0	0	0	0	0	505	513	511	31	0	
5	0	0	0	0	0	505	511	510	31	0	
6	0	0	0	0	0	508	514	511	31	0	
7	0	0	0	0	0	508	514	510	31	0	
8	0	0	0	0	0	505	512	513	32	0	
9	0	0	0	0	0	506	516	510	32	0	
10	0	0	0	0	1	504	511	509	31	0	
11	0	0	0	0	0	504	511	508	31	0	
12	0	0	0	0	0	505	511	505	31	0	
13	0	0	0	0	0	505	513	505	31	0	
14	0	0	0	0	0	505	511	508	31	0	
15	0	0	0	0	0	505	509	508	31	0	
0	0	0	0	0	0	504	512	508	31	0	
1	0	0	0	0	0	506	512	506	31	0	
2	0	0	0	0	1	508	511	508	31	0	
3	0	0	0	0	0	507	511	508	31	0	
4	0	0	0	0	0	506	511	507	31	0	
5	0	0	0	0	0	507	511	510	31	0	
6	0	0	0	0	0	505	513	508	31	0	
7	0	0	0	0	0	506	512	512	31	0	
8	0	0	0	0	0	505	511	510	31	0	
9	0	0	0	0	0	505	512	510	31	0	
10	0	0	0	0	1	506	510	512	31	0	
11	0	0	0	0	0	503	510	511	31	0	
12	0	0	0	0	0	505	512	510	31	0	
13	0	0	0	0	0	504	513	510	31	0	
14	0	0	0	0	0	504	512	510	31	0	
15	0	0	0	0	0	506	512	508	31	0	
0	0	0	0	0	0	505	511	508	32	0	
1	0	0	0	0	0	505	511	508	31	0	
2	0	0	0	0	0	506	511	508	31	0	
3	0	0	0	0	0	502	511	507	31	0	
4	0	0	0	0	0	504	513	509	31	0	
5	0	0	0	0	0	504	511	510	31	0	
6	0	0	0	0	0	505	511	508	31	0	
7	0	0	0	0	0	507	512	509	31	0	
8	0	0	0	0	0	507	514	508	31	0	
9	0	0	0	0	0	506	515	507	31	0	
10	0	0	0	0	1	505	513	510	31	0	
11	0	0	0	0	0	503	513	507	31	0	
12	0	0	0	0	0	505	512	511	31	0	
13	0	0	0	0	0	504	513	510	31	0	
14	0	0	0	0	0	506	512	511	31	0	
15	0	0	0	0	0	507	512	511	31	0	
0	0	0	0	0	0	506	511	510	31	0	
1	0	0	0	0	0	505	511	509	31	0	
2	0	0	0	0	1	504	512	509	31	0	
3	0	0	0	0	0	504	512	508	31	0	
4	0	0	0	0	0	503	511	505	31	0	
5	0	0	0	0	0	505	513	505	31	0	
6	0	0	0	0	0	505	513	509	31	0	
7	0	0	0	0	0	503	509	510	31	0	
8	0	0	0	0	0	506	511	513	31	0	
9	0	0	0	0	0	504	512	512	31	0	
10	0	0	0	0	1	505	513	510	32	0	
11	0	0	0	0	0	504	512	509	31	0	
12	0	0	0	0	0	505	511	508	31	0	
13	0	0	0	0	0	507	512	508	31	0	
14	0	0	0	0	0	506	512	510	31	0	
15	0	0	0	0	0	504	511	505	31	0	
0	0	0	0	0	0	504	512	508	31	0	
1	0	0	0	0	0	504	512	509	31	0	
2	0	0	0	0	1	506	511	508	31	0	
3	0	0	0	0	0	507	511	507	31	0	
4	0	0	0	0	0	505	511	508	31	0	
5	0	0	0	0	0	504	513	509	31	0	
6	0	0	0	0	0	505	512	508	31	0	
7	0	0	0	0	0	505	513	510	31	0	
8	0	0	0	0	0	505	512	508	31	0	
9	0	0	0	0	0	506	514	511	31	0	
10	0	0	0	0	1	504	511	512	31	0	
11	0	0	0	0	0	506	512	512	31	0	
12	0	0	0	0	0	508	513	513	31	0	
13	0	0	0	0	0	505	512	513	31	0	
14	0	0	0	0	0	504	513	511	31	0	
15	0	0	0	0	0	504	511	510	31	0	
0	0	0	0	0	0	505	514	509	32	0	
1	0	0	0	0	0	504	515	509	31	0	
2	0	0	0	0	1	505	514	505	31	0	
3	0	0	0	0	0	504	512	502	31	0	
4	0	0	0	0	0	505	511	503	31	0	
5	0	0	0	0	0	504	513	503	31	0	
6	0	0	0	0	0	504	512	505	31	0	
7	0	0	0	0	0	503	510	511	31	0	
8	0	0	0	0	0	504	510	511	31	0	
9	0	0	0	0	0	503	511	510	31	0	
10	0	0	0	0	1	506	511	510	31	0	
11	0	0	0	0	0	507	509	511	31	0	
12	0	0	0	0	0	506	510	512	31	0	
13	0	0	0	0	0	507	513	511	31	0	
14	0	0	0	0	0	505	511	509	32	0	
15	0	0	0	0	0	507	512	511	31	0	
0	0	0	0	0	0	503	513	509	32	0	
1	0	0	0	0	0	505	513	510	31	0	
2	0	0	0	0	1	504	512	508	31	0	
3	0	0	0	0	0	506	509	508	32	0	
4	0	0	0	0	0	507	511	508	31	0	
5	0	0	0	0	0	505	511	508	31	0	
6	0	0	0	0	0	505	512	509	31	0	
7	0	0	0	0	0	505	515	509	31	0	
8	0	0	0	0	0	505	512	507	31	0	
9	0	0	0	0	0	507	513	510	31	0	
10	0	0	0	0	1	505	512	510	31	0	
11	0	0	0	0	0	504	513	511	31	0	
12	0	0	0	0	0	503	511	510	31	0	
13	0	0	0	0	0	503	512	512	31	0	
14	0	0	0	0	0	505	511	511	31	0	
15	0	0	0	0	0	503	511	510	31	0	
0	0	0	0	0	0	503	514	509	32	0	
1	0	0	0	0	0	503	511	512	31	0	
2	0	0	0	0	1	505	513	512	32	0	
3	0	0	0	0	0	507	514	511	31	0	
4	0	0	0	0	0	506	512	511	31	0	
5	0	0	0	0	0	504	510	508	31	0	
6	0	0	0	0	0	504	512	509	31	0	
7	0	0	0	0	0	505	512	508	31	0	
8	0	0	0	0	1	505	512	508	31	0	
9	0	0	0	0	0	505	512	508	31	0	
10	0	0	0	0	1	505	511	510	31	0	
11	0	0	0	0	0	506	510	509	31	0	
12	0	0	0	0	0	507	513	508	31	0	
13	0	0	0	0	0	507	514	506	31	0	
14	0	0	0	0	0	506	512	507	31	0	
15	0	0	0	0	0	505	511	505	31	0	
0	0	0	0	0	0	505	510	508	31	0	
1	0	0	0	0	0	504	513	508	31	0	
2	0	0	0	0	1	504	512	508	31	0	
3	0	0	0	0	0	504	513	511	31	0	
4	0	0	0	0	0	504	512	513	32	0	
5	0	0	0	0	0	505	514	512	32	0	
6	0	0	0	0	0	507	514	510	31	0	
7	0	0	0	0	0	505	512	508	31	0	
8	0	0	0	0	0	505	513	510	31	0	
9	0	0	0	0	0	509	510	510	31	0	
10	0	0	0	0	1	508	512	507	31	0	
11	0	0	0	0	0	508	513	507	31	0	
12	0	0	0	0	0	505	511	508	31	0	
13	0	0	0	0	0	506	513	509	31	0	
14	0	0	0	0	0	504	512	511	31	0	
15	0	0	0	0	0	504	512	508	32	0	
0	0	0	0	0	0	505	512	506	31	0	
1	0	0	0	0	0	504	513	507	31	0	
2	0	0	0	0	0	504	513	507	31	0	
3	0	0	0	0	0	504	512	509	31	0	
4	0	0	0	0	0	502	511	512	31	0	
5	0	0	0	0	0	504	509	511	31	0	
6	0	0	0	0	0	502	509	509	31	0	
7	0	0	0	0	0	504	510	507	31	0	
8	0	0	0	0	0	504	510	508	31	0	
9	0	0	0	0	0	504	512	509	31	0	
10	0	0	0	0	0	505	513	508	31	0	
11	0	0	0	0	0	504	515	511	31	0	
12	0	0	0	0	0	506	514	513	31	0	
13	0	0	0	0	0	505	511	512	31	0	
14	0	0	0	0	0	508	510	511	31	0	
15	0	0	0	0	0	505	511	508	32	0	
0	0	0	0	0	0	508	511	509	31	0	
1	0	0	0	0	0	506	512	510	31	0	
2	0	0	0	0	0	506	514	508	31	0	
3	0	0	0	0	0	505	513	507	31	0	
4	0	0	0	0	0	504	513	509	31	0	
5	0	0	0	0	0	505	513	510	31	0	
6	0	0	0	0	0	506	513	509	31	0	
7	0	0	0	0	0	506	512	508	31	0	
8	0	0	0	0	0	505	512	510	31	0	
9	0	0	0	0	0	505	513	508	31	0	
10	0	0	0	0	1	505	512	508	31	0	
11	0	0	0	0	0	504	511	510	31	0	
12	0	0	0	0	0	504	510	509	31	0	
13	0	0	0	0	0	504	511	511	31	0	
14	0	0	0	0	0	504	512	512	31	0	
15	0	0	0	0	0	504	511	510	31	0	
0	0	0	0	0	0	507	512	510	31	0	
1	0	0	0	0	0	505	512	511	32	0	
2	0	0	0	0	1	504	511	507	32	0	
3	0	0	0	0	0	506	513	504	31	0	
4	0	0	0	0	0	507	512	503	31	0	
5	0	0	0	0	0	505	511	504	31	0	
6	0	0	0	0	0	505	511	507	31	0	
7	0	0	0	0	0	505	512	511	31	0	
8	0	0	0	0	0	506	511	510	31	0	
9	0	0	0	0	0	506	513	510	31	0	
10	0	0	0	0	1	505	515	508	31	0	
11	0	0	0	0	0	503	514	509	31	0	
12	0	0	0	0	0	504	513	508	31	0	
13	0	0	0	0	0	505	512	510	31	0	
14	0	0	0	0	0	504	511	509	31	0	
15	0	0	0	0	0	504	511	511	31	0	
0	0	0	0	0	0	504	513	510	31	0	
1	0	0	0	0	0	504	512	511	31	0	
2	0	0	0	0	1	504	511	511	31	0	
3	0	0	0	0	0	504	512	509	31	0	
4	0	0	0	0	0	504	515	510	31	0	
5	0	0	0	0	0	505	513	509	31	0	
6	0	0	0	0	0	508	512	510	31	0	
7	0	0	0	0	0	506	513	510	32	0	
8	0	0	0	0	0	505	511	510	31	0	
9	0	0	0	0	0	505	511	511	31	0	
10	0	0	0	0	1	506	512	512	31	0	
11	0	0	0	0	0	505	510	508	31	0	
12	0	0	0	0	0	504	511	509	31	0	
13	0	0	0	0	0	505	509	508	31	0	
14	0	0	0	0	0	505	510	512	31	0	
15	0	0	0	0	0	505	510	512	31	0	
0	0	0	0	0	0	504	512	511	31	0	
1	0	0	0	0	0	504	513	508	31	0	
2	0	0	0	0	1	505	511	504	31	0	
3	0	0	0	0	0	505	512	504	31	0	
4	0	0	0	0	0	506	513	505	31	0	
5	0	0	0	0	0	505	515	507	31	0	
6	0	0	0	0	0	505	514	510	31	0	
7	0	0	0	0	0	506	511	510	31	0	
8	0	0	0	0	0	504	515	509	31	0	
9	0	0	0	0	0	505	512	512	31	0	
10	0	0	0	0	1	504	512	511	31	0	
11	0	0	0	0	0	504	511	513	31	0	
12	0	0	0	0	0	504	512	512	31	0	
13	0	0	0	0	0	506	512	511	31	0	
14	0	0	0	0	0	506	512	511	31	0	
15	0	0	0	0	0	509	511	508	31	0	
0	0	0	0	0	0	508	511	506	31	0	
1	0	0	0	0	0	508	513	507	31	0	
2	0	0	0	0	1	508	513	506	31	0	
3	0	0	0	0	0	505	514	504	31	0	
4	0	0	0	0	0	505	513	508	31	0	
5	0	0	0	0	0	500	511	507	32	0	
6	0	0	0	0	0	502	513	510	32	0	
7	0	0	0	0	0	503	511	515	32	0	
8	0	0	0	0	0	505	511	516	32	0	
9	0	0	0	0	0	506	512	515	32	0	
10	0	0	0	0	1	505	514	514	31	0	
11	0	0	0	0	0	507	512	512	31	0	
12	0	0	0	0	0	507	512	511	31	0	
13	0	0	0	0	0	506	513	508	31	0	
14	0	0	0	0	0	505	510	505	31	0	
15	0	0	0	0	0	505	510	503	31	0	
0	0	0	0	0	0	504	510	500	31	0	
1	0	0	0	0	0	506	510	502	31	0	
2	0	0	0	0	1	506	509	504	31	0	
3	0	0	0	0	0	507	510	509	31	0	
4	0	0	0	0	0	506	513	515	32	0	
5	0	0	0	0	0	505	513	512	32	0	
6	0	0	0	0	0	503	511	511	31	0	
7	0	0	0	0	0	504	514	511	31	0	
8	0	0	0	0	0	504	513	511	31	0	
9	0	0	0	0	0	502	512	509	31	0	
10	0	0	0	0	1	502	511	508	31	0	
11	0	0	0	0	0	505	511	508	31	0	
12	0	0	0	0	0	505	508	508	31	0	
13	0	0	0	0	0	503	510	506	31	0	
14	0	0	0	0	0	506	512	508	32	0	
15	0	0	0	0	0	508	513	508	31	0	
0	0	0	0	0	0	505	513	511	31	0	
1	0	0	0	0	0	506	515	513	32	0	
2	0	0	0	0	1	504	515	512	31	0	
3	0	0	0	0	0	505	513	513	32	0	
4	0	0	0	0	0	505	511	511	32	0	
5	0	0	0	0	0	504	511	511	32	0	
6	0	0	0	0	0	504	511	509	31	0	
7	0	0	0	0	0	504	511	507	31	0	
8	0	0	0	0	0	504	513	505	31	0	
9	0	0	0	0	0	505	515	507	31	0	
10	0	0	0	0	1	506	512	505	31	0	
11	0	0	0	0	0	504	513	507	31	0	
12	0	0	0	0	0	506	513	507	31	0	
13	0	0	0	0	0	504	512	508	31	0	
14	0	0	0	0	0	505	512	509	31	0	
15	0	0	0	0	0	505	512	510	31	0	
0	0	0	0	0	0	505	512	512	32	0	
1	0	0	0	0	0	508	514	511	32	0	
2	0	0	0	0	1	506	513	515	32	0	
3	0	0	0	0	0	505	511	514	32	0	
4	0	0	0	0	0	508	513	516	32	0	
5	0	0	0	0	0	507	514	513	32	0	
6	0	0	0	0	0	510	513	508	31	0	
7	0	0	0	0	0	506	511	505	31	0	
8	0	0	0	0	0	507	513	504	31	0	
9	0	0	0	0	0	504	512	504	31	0	
10	0	0	0	0	1	503	512	505	31	0	
11	0	0	0	0	0	504	512	506	32	0	
12	0	0	0	0	0	504	511	508	32	0	
13	0	0	0	0	0	504	511	511	31	0	
14	0	0	0	0	0	504	511	508	31	0	
15	0	0	0	0	0	505	514	510	31	0	
0	0	0	0	0	0	503	513	514	31	0	
1	0	0	0	0	0	504	508	511	31	0	
2	0	0	0	0	1	505	510	512	31	0	
3	0	0	0	0	0	505	508	511	31	0	
4	0	0	0	0	0	504	513	510	31	0	
5	0	0	0	0	0	505	513	505	32	0	
6	0	0	0	0	0	509	517	504	31	0	
7	0	0	0	0	0	506	515	505	31	0	
8	0	0	0	0	0	506	513	505	31	0	
9	0	0	0	0	0	504	512	505	32	0	
10	0	0	0	0	1	504	512	506	31	0	
11	0	0	0	0	0	505	513	508	31	0	
12	0	0	0	0	0	506	511	509	31	0	
13	0	0	0	0	0	503	510	509	31	0	
14	0	0	0	0	0	504	511	508	31	0	
15	0	0	0	0	0	504	510	510	31	0	
0	0	0	0	0	0	504	512	511	31	0	
1	0	0	0	0	0	506	511	511	31	0	
2	0	0	0	0	1	505	512	511	31	0	
3	0	0	0	0	0	506	512	513	31	0	
4	0	0	0	0	0	506	511	515	32	0	
5	0	0	0	0	0	505	512	516	32	0	
6	0	0	0	0	0	505	512	516	32	0	
7	0	0	0	0	0	507	513	516	32	0	
8	0	0	0	0	0	506	513	513	32	0	
9	0	0	0	0	0	507	513	511	32	0	
10	0	0	0	0	1	508	513	508	32	0	
11	0	0	0	0	0	504	512	503	31	0	
12	0	0	0	0	0	501	511	505	32	0	
13	0	0	0	0	0	502	512	510	32	0	
14	0	0	0	0	0	502	513	508	31	0	
15	0	0	0	0	0	507	512	511	31	0	
0	0	0	0	0	0	505	513	507	31	0	
1	0	0	0	0	0	506	512	505	31	0	
2	0	0	0	0	1	506	514	501	31	0	
3	0	0	0	0	0	506	510	501	31	0	
4	0	0	0	0	0	509	511	499	31	0	
5	0	0	0	0	0	505	511	499	31	0	
6	0	0	0	0	0	503	513	504	31	0	
7	0	0	0	0	0	504	514	508	31	0	
8	0	0	0	0	0	505	512	510	31	0	
9	0	0	0	0	0	503	511	508	31	0	
10	0	0	0	0	1	504	511	514	31	0	
11	0	0	0	0	0	505	513	513	32	0	
12	0	0	0	0	0	503	511	515	31	0	
13	0	0	0	0	0	504	512	513	31	0	
14	0	0	0	0	0	506	513	515	32	0	
15	0	0	0	0	0	505	512	515	32	0	
0	0	0	0	0	0	507	513	515	32	0	
1	0	0	0	0	0	504	512	515	32	0	
2	0	0	0	0	1	507	512	515	32	0	
3	0	0	0	0	0	505	512	513	32	0	
4	0	0	0	0	0	504	512	512	31	0	
5	0	0	0	0	0	506	512	510	31	0	
6	0	0	0	0	0	507	512	506	31	0	
7	0	0	0	0	0	506	511	504	31	0	
8	0	0	0	0	0	505	511	504	31	0	
9	0	0	0	0	0	506	512	501	31	0	
10	0	0	0	0	1	508	511	504	31	0	
11	0	0	0	0	0	506	513	508	31	0	
12	0	0	0	0	0	503	512	511	31	0	
13	0	0	0	0	0	504	512	512	31	0	
14	0	0	0	0	0	504	511	510	31	0	
15	0	0	0	0	0	504	512	509	31	0	
0	0	0	0	0	0	504	511	509	31	0	
1	0	0	0	0	0	504	513	511	31	0	
2	0	0	0	0	1	506	513	514	32	0	
3	0	0	0	0	0	507	512	511	31	0	
4	0	0	0	0	0	505	512	508	32	0	
5	0	0	0	0	0	504	510	509	32	0	
6	0	0	0	0	0	504	512	510	32	0	
7	0	0	0	0	0	504	511	509	31	0	
8	0	0	0	0	0	504	511	507	31	0	
9	0	0	0	0	0	503	511	508	31	0	
10	0	0	0	0	0	502	511	508	31	0	
11	0	0	0	0	0	504	512	509	32	0	
12	0	0	0	0	0	504	512	512	32	0	
13	0	0	0	0	0	504	513	509	31	0	
14	0	0	0	0	0	508	512	509	32	0	
15	0	0	0	0	0	508	511	511	32	0	
0	0	0	0	0	0	508	513	510	31	0	
1	0	0	0	0	0	509	511	508	31	0	
2	0	0	0	0	0	506	513	505	31	0	
3	0	0	0	0	0	507	515	502	31	0	
4	0	0	0	0	0	505	513	503	31	0	
5	0	0	0	0	0	502	514	504	31	0	
6	0	0	0	0	0	504	513	504	31	0	
7	0	0	0	0	0	504	511	508	31	0	
8	0	0	0	0	0	505	514	518	31	0	
9	0	0	0	0	0	505	514	520	31	0	
10	0	0	0	0	0	504	514	519	32	0	
11	0	0	0	0	0	502	514	523	32	0	
12	0	0	0	0	0	504	514	520	32	0	
13	0	0	0	0	0	504	512	512	32	0	
14	0	0	0	0	0	506	514	505	31	0	
15	0	0	0	0	0	505	510	497	31	0	
0	0	0	0	0	0	507	511	497	30	0	
1	0	0	0	0	0	507	509	504	30	0	
2	0	0	0	0	1	504	508	505	30	0	
3	0	0	0	0	0	507	508	502	30	0	
4	0	0	0	0	0	508	510	500	32	0	
5	0	0	0	0	0	505	511	505	33	0	
6	0	0	0	0	0	504	510	507	32	0	
7	0	0	0	0	0	505	510	507	32	0	
8	0	0	0	0	0	503	512	512	32	0	
9	0	0	0	0	0	505	513	518	32	0	
10	0	0	0	0	1	507	512	521	31	0	
11	0	0	0	0	0	505	511	526	31	0	
12	0	0	0	0	0	503	511	519	30	0	
13	0	0	0	0	0	503	514	500	31	0	
14	0	0	0	0	0	511	512	465	31	0	
15	0	0	0	0	0	511	509	465	31	0	
0	0	0	0	0	0	503	513	510	31	0	
1	0	0	0	0	0	499	515	540	31	0	
2	0	0	0	0	1	503	514	529	32	0	
3	0	0	0	0	0	500	513	519	31	0	
4	0	0	0	0	0	504	511	520	31	0	
5	0	0	0	0	0	509	511	523	31	0	
6	0	0	0	0	0	509	511	521	31	0	
7	0	0	0	0	0	509	507	518	32	0	
8	0	0	0	0	0	507	511	511	32	0	
9	0	0	0	0	0	504	515	502	32	0	
10	0	0	0	0	1	508	515	482	31	0	
11	0	0	0	0	0	507	514	483	31	0	
12	0	0	0	0	0	504	512	503	32	0	
13	0	0	0	0	0	504	512	508	32	0	
14	0	0	0	0	0	502	508	512	32	0	
15	0	0	0	0	0	501	511	518	32	0	
0	0	0	0	0	0	506	509	519	31	0	
1	0	0	0	0	0	507	512	521	31	0	
2	0	0	0	0	1	507	515	517	32	0	
3	0	0	0	0	0	506	515	505	32	0	
4	0	0	0	0	0	504	514	502	31	0	
5	0	0	0	0	0	504	512	499	31	0	
6	0	0	0	0	0	508	511	483	31	0	
7	0	0	0	0	0	512	506	467	30	0	
8	0	0	0	0	0	508	509	487	30	0	
9	0	0	0	0	0	501	509	526	31	0	
10	0	0	0	0	1	498	512	556	32	0	
11	0	0	0	0	0	497	510	543	32	0	
12	0	0	0	0	0	499	515	535	33	0	
13	0	0	0	0	0	502	515	533	35	0	
14	0	0	0	0	0	507	514	540	36	0	
15	0	0	0	0	0	509	519	540	34	0	
0	0	0	0	0	0	513	517	517	31	0	
1	0	0	0	0	0	508	515	492	29	0	
2	0	0	0	0	1	508	518	474	26	0	
3	0	0	0	0	0	510	513	459	26	0	
4	0	0	0	0	0	508	502	451	27	0	
5	0	0	0	0	0	504	499	460	30	0	
6	0	0	0	0	0	497	507	507	33	0	
7	0	0	0	0	0	499	515	540	33	0	
8	0	0	0	0	0	500	514	542	32	0	
9	0	0	0	0	0	506	509	534	32	0	
10	0	0	0	0	1	505	515	516	31	0	
11	0	0	0	0	0	507	517	501	30	0	
12	0	0	0	0	0	504	513	499	30	0	
13	0	0	0	0	0	503	505	505	31	0	
14	0	0	0	0	0	505	511	504	31	0	
15	0	0	0	0	0	506	515	512	32	0	
0	0	0	0	0	0	508	512	510	32	0	
1	0	0	0	0	0	504	513	504	32	0	
2	0	0	0	0	1	508	515	501	32	0	
3	0	0	0	0	0	509	513	506	32	0	
4	0	0	0	0	0	508	509	507	32	0	
5	0	0	0	0	0	505	512	502	32	0	
6	0	0	0	0	0	504	512	508	32	0	
7	0	0	0	0	0	502	512	531	33	0	
8	0	0	0	0	0	506	514	532	32	0	
9	0	0	0	0	0	505	522	520	30	0	
10	0	0	0	0	1	508	520	507	30	0	
11	0	0	0	0	0	505	511	500	30	0	
12	0	0	0	0	0	504	504	496	30	0	
13	0	0	0	0	0	503	504	499	31	0	
14	0	0	0	0	0	506	507	492	31	0	
15	0	0	0	0	0	507	513	499	32	0	
0	0	0	0	0	0	504	514	519	32	0	
1	0	0	0	0	0	504	513	519	32	0	
2	0	0	0	0	1	507	508	515	32	0	
3	0	0	0	0	0	508	511	519	32	0	
4	0	0	0	0	0	505	513	521	32	0	
5	0	0	0	0	0	503	514	512	31	0	
6	0	0	0	0	0	506	514	506	31	0	
7	0	0	0	0	0	505	512	506	31	0	
8	0	0	0	0	0	505	513	509	31	0	
9	0	0	0	0	0	507	514	509	32	0	
10	0	0	0	0	1	507	514	508	32	0	
11	0	0	0	0	0	506	514	515	32	0	
12	0	0	0	0	0	502	511	517	32	0	
13	0	0	0	0	0	502	511	516	32	0	
14	0	0	0	0	0	505	507	514	31	0	
15	0	0	0	0	0	504	508	515	31	0	
0	0	0	0	0	0	508	511	510	31	0	
1	0	0	0	0	0	510	516	509	31	0	
2	0	0	0	0	1	507	517	509	32	0	
3	0	0	0	0	0	505	515	505	32	0	
4	0	0	0	0	0	500	515	503	31	0	
5	0	0	0	0	0	502	511	500	31	0	
6	0	0	0	0	0	502	510	500	30	0	
7	0	0	0	0	0	504	507	501	31	0	
8	0	0	0	0	0	504	510	504	31	0	
9	0	0	0	0	0	506	512	510	31	0	
10	0	0	0	0	1	508	515	512	31	0	
11	0	0	0	0	0	507	512	507	31	0	
12	0	0	0	0	0	508	511	505	31	0	
13	0	0	0	0	0	504	512	518	31	0	
14	0	0	0	0	0	502	511	522	31	0	
15	0	0	0	0	0	503	515	519	31	0	
0	0	0	0	0	0	502	513	516	31	0	
1	0	0	0	0	0	506	514	509	31	0	
2	0	0	0	0	1	506	513	499	31	0	
3	0	0	0	0	0	504	515	502	32	0	
4	0	0	0	0	0	506	513	507	32	0	
5	0	0	0	0	0	507	512	507	32	0	
6	0	0	0	0	0	507	514	510	32	0	
7	0	0	0	0	0	508	512	511	32	0	
8	0	0	0	0	0	504	510	510	32	0	
9	0	0	0	0	0	506	510	509	31	0	
10	0	0	0	0	1	507	512	510	31	0	
11	0	0	0	0	0	506	511	511	31	0	
12	0	0	0	0	0	503	511	511	32	0	
13	0	0	0	0	0	504	511	511	31	0	
14	0	0	0	0	0	501	512	509	31	0	
15	0	0	0	0	0	503	511	507	31	0	
0	0	0	0	0	0	503	514	505	31	0	
1	0	0	0	0	0	504	515	505	31	0	
2	0	0	0	0	1	504	513	506	31	0	
3	0	0	0	0	0	503	513	510	31	0	
4	0	0	0	0	0	506	512	509	32	0	
5	0	0	0	0	0	505	512	511	31	0	
6	0	0	0	0	0	505	512	512	32	0	
7	0	0	0	0	0	504	513	510	32	0	
8	0	0	0	0	0	507	513	509	31	0	
9	0	0	0	0	0	507	514	509	32	0	
10	0	0	0	0	1	505	515	511	31	0	
11	0	0	0	0	0	506	513	511	31	0	
12	0	0	0	0	0	507	511	508	31	0	
13	0	0	0	0	0	507	508	508	31	0	
14	0	0	0	0	0	504	508	510	31	0	
15	0	0	0	0	0	502	510	512	31	0	
0	0	0	0	0	0	502	511	511	31	0	
1	0	0	0	0	0	504	512	510	31	0	
2	0	0	0	0	1	503	513	510	32	0	
3	0	0	0	0	0	504	512	509	32	0	
4	0	0	0	0	0	503	513	509	32	0	
5	0	0	0	0	0	502	514	510	32	0	
6	0	0	0	0	0	505	516	510	31	0	
7	0	0	0	0	0	507	515	509	31	0	
8	0	0	0	0	0	510	510	507	31	0	
9	0	0	0	0	0	508	510	508	31	0	
10	0	0	0	0	1	508	508	508	31	0	
11	0	0	0	0	0	506	509	511	31	0	
12	0	0	0	0	0	507	510	509	31	0	
13	0	0	0	0	0	504	510	508	31	0	
14	0	0	0	0	0	504	511	507	31	0	
15	0	0	0	0	0	505	511	507	31	0	
0	0	0	0	0	0	507	514	509	31	0	
1	0	0	0	0	0	506	513	509	32	0	
2	0	0	0	0	1	502	511	510	31	0	
3	0	0	0	0	0	505	512	510	31	0	
4	0	0	0	0	0	504	511	510	31	0	
5	0	0	0	0	0	507	511	508	31	0	
6	0	0	0	0	0	506	511	508	31	0	
7	0	0	0	0	0	506	513	508	31	0	
8	0	0	0	0	0	508	511	507	31	0	
9	0	0	0	0	0	508	513	510	31	0	
10	0	0	0	0	1	504	510	510	31	0	
11	0	0	0	0	0	507	508	504	31	0	
12	0	0	0	0	0	508	509	503	31	0	
13	0	0	0	0	0	505	513	509	31	0	
14	0	0	0	0	0	502	511	512	31	0	
15	0	0	0	0	0	503	511	504	31	0	
0	0	0	0	0	0	502	514	505	31	0	
1	0	0	0	0	0	499	513	508	31	0	
2	0	0	0	0	1	501	515	511	31	0	
3	0	0	0	0	0	503	513	510	31	0	
4	0	0	0	0	0	503	515	509	31	0	
5	0	0	0	0	0	504	512	510	31	0	
6	0	0	0	0	0	504	511	508	31	0	
7	0	0	0	0	0	506	510	512	31	0	
8	0	0	0	0	0	504	511	513	31	0	
9	0	0	0	0	0	505	512	513	31	0	
10	0	0	0	0	1	506	510	513	32	0	
11	0	0	0	0	0	505	512	512	31	0	
12	0	0	0	0	0	507	515	510	31	0	
13	0	0	0	0	0	505	515	508	31	0	
14	0	0	0	0	0	507	515	508	31	0	
15	0	0	0	0	0	509	515	506	31	0	
0	0	0	0	0	0	508	514	508	31	0	
1	0	0	0	0	0	506	509	511	32	0	
2	0	0	0	0	1	508	511	513	32	0	
3	0	0	0	0	0	508	512	516	32	0	
4	0	0	0	0	0	508	511	512	32	0	
5	0	0	0	0	0	508	511	513	32	0	
6	0	0	0	0	0	504	511	511	31	0	
7	0	0	0	0	0	504	512	507	31	0	
8	0	0	0	0	0	503	513	502	32	0	
9	0	0	0	0	0	501	513	504	32	0	
10	0	0	0	0	0	500	517	505	31	0	
11	0	0	0	0	0	503	512	507	31	0	
12	0	0	0	0	0	500	511	506	31	0	
13	0	0	0	0	0	504	512	507	31	0	
14	0	0	0	0	0	505	510	507	31	0	
15	0	0	0	0	0	509	508	509	31	0	
0	0	0	0	0	0	507	511	505	31	0	
1	0	0	0	0	0	506	510	505	31	0	
2	0	0	0	0	0	504	512	509	31	0	
3	0	0	0	0	0	504	512	511	31	0	
4	0	0	0	0	0	505	512	507	31	0	
5	0	0	0	0	0	505	513	513	31	0	
6	0	0	0	0	0	506	514	513	32	0	
7	0	0	0	0	0	506	513	517	32	0	
8	0	0	0	0	0	507	512	515	32	0	
9	0	0	0	0	0	507	515	516	31	0	
10	0	0	0	0	1	506	515	512	31	0	
11	0	0	0	0	0	507	513	511	31	0	
12	0	0	0	0	0	504	510	510	31	0	
13	0	0	0	0	0	506	512	502	31	0	
14	0	0	0	0	0	509	512	501	31	0	
15	0	0	0	0	0	507	511	507	31	0	
0	0	0	0	0	0	507	513	511	31	0	
1	0	0	0	0	0	504	511	511	31	0	
2	0	0	0	0	1	502	511	515	32	0	
3	0	0	0	0	0	501	513	514	31	0	
4	0	0	0	0	0	503	511	510	31	0	
5	0	0	0	0	0	504	511	513	32	0	
6	0	0	0	0	0	506	513	516	31	0	
7	0	0	0	0	0	505	512	515	32	0	
8	0	0	0	0	0	505	510	512	31	0	
9	0	0	0	0	0	508	512	505	31	0	
10	0	0	0	0	1	502	509	502	31	0	
11	0	0	0	0	0	499	511	504	31	0	
12	0	0	0	0	0	501	510	507	31	0	
13	0	0	0	0	0	503	512	511	31	0	
14	0	0	0	0	0	503	512	511	32	0	
15	0	0	0	0	0	504	513	510	31	0	
0	0	0	0	0	0	508	513	513	31	0	
1	0	0	0	0	0	512	512	507	31	0	
2	0	0	0	0	1	510	514	502	31	0	
3	0	0	0	0	0	510	512	501	31	0	
4	0	0	0	0	0	505	512	500	31	0	
5	0	0	0	0	0	508	512	504	31	0	
6	0	0	0	0	0	504	512	504	31	0	
7	0	0	0	0	0	503	511	507	31	0	
8	0	0	0	0	0	503	512	510	31	0	
9	0	0	0	0	0	504	512	511	31	0	
10	0	0	0	0	1	506	513	509	31	0	
11	0	0	0	0	0	507	514	510	32	0	
12	0	0	0	0	0	506	511	513	32	0	
13	0	0	0	0	0	504	511	516	32	0	
14	0	0	0	0	0	505	512	515	31	0	
15	0	0	0	0	0	507	512	512	32	0	
0	0	0	0	0	0	506	512	509	32	0	
1	0	0	0	0	0	504	512	513	32	0	
2	0	0	0	0	1	504	512	511	32	0	
3	0	0	0	0	0	506	511	507	31	0	
4	0	0	0	0	0	505	508	508	31	0	
5	0	0	0	0	0	504	511	510	31	0	
6	0	0	0	0	0	503	510	509	31	0	
7	0	0	0	0	0	504	513	513	31	0	
8	0	0	0	0	0	504	512	515	31	0	
9	0	0	0	0	0	503	512	515	31	0	
10	0	0	0	0	1	502	514	513	31	0	
11	0	0	0	0	0	504	512	511	31	0	
12	0	0	0	0	0	508	511	506	31	0	
13	0	0	0	0	0	509	511	503	31	0	
14	0	0	0	0	0	505	511	504	31	0	
15	0	0	0	0	0	508	513	505	31	0	
0	0	0	0	0	0	505	511	505	31	0	
1	0	0	0	0	0	505	513	507	31	0	
2	0	0	0	0	1	507	513	508	31	0	
3	0	0	0	0	0	507	515	510	31	0	
4	0	0	0	0	0	507	512	508	31	0	
5	0	0	0	0	0	506	512	509	31	0	
6	0	0	0	0	0	504	511	511	31	0	
7	0	0	0	0	0	500	514	511	31	0	
8	0	0	0	0	0	502	511	508	31	0	
9	0	0	0	0	0	504	514	505	31	0	
10	0	0	0	0	1	507	514	507	31	0	
11	0	0	0	0	0	506	513	514	31	0	
12	0	0	0	0	0	504	512	516	32	0	
13	0	0	0	0	0	504	511	513	32	0	
14	0	0	0	0	0	505	511	511	32	0	
15	0	0	0	0	0	503	511	510	31	0	
0	0	0	0	0	0	504	512	509	31	0	
1	0	0	0	0	0	508	513	508	31	0	
2	0	0	0	0	1	507	512	508	31	0	
3	0	0	0	0	0	507	510	508	32	0	
4	0	0	0	0	0	503	512	508	31	0	
5	0	0	0	0	0	506	512	508	31	0	
6	0	0	0	0	0	504	514	509	31	0	
7	0	0	0	0	0	505	513	509	31	0	
8	0	0	0	0	0	507	515	508	31	0	
9	0	0	0	0	0	506	513	506	31	0	
10	0	0	0	0	1	505	510	508	31	0	
11	0	0	0	0	0	503	512	507	32	0	
12	0	0	0	0	0	503	511	509	31	0	
13	0	0	0	0	0	504	510	510	31	0	
14	0	0	0	0	0	504	510	511	31	0	
15	0	0	0	0	0	505	512	510	31	0	
0	0	0	0	0	0	505	508	508	31	0	
1	0	0	0	0	0	504	512	512	31	0	
2	0	0	0	0	1	505	514	512	31	0	
3	0	0	0	0	0	508	515	510	31	0	
4	0	0	0	0	0	505	512	508	31	0	
5	0	0	0	0	0	505	510	505	31	0	
6	0	0	0	0	0	507	513	505	31	0	
7	0	0	0	0	0	504	512	509	31	0	
8	0	0	0	0	0	505	512	506	31	0	
9	0	0	0	0	0	508	512	508	31	0	
10	0	0	0	0	1	506	511	509	31	0	
11	0	0	0	0	0	504	513	513	32	0	
12	0	0	0	0	0	504	512	512	31	0	
13	0	0	0	0	0	504	513	512	31	0	
14	0	0	0	0	0	504	514	513	31	0	
15	0	0	0	0	0	504	512	512	31	0	
0	0	0	0	0	0	505	512	512	31	0	
1	0	0	0	0	0	504	512	510	31	0	
2	0	0	0	0	1	506	513	510	31	0	
3	0	0	0	0	0	506	510	509	31	0	
4	0	0	0	0	0	506	510	511	31	0	
5	0	0	0	0	0	505	511	511	32	0	
6	0	0	0	0	0	507	511	508	31	0	
7	0	0	0	0	0	504	513	509	31	0	
8	0	0	0	0	0	503	512	509	32	0	
9	0	0	0	0	0	505	511	505	31	0	
10	0	0	0	0	1	505	512	505	31	0	
11	0	0	0	0	0	505	514	507	31	0	
12	0	0	0	0	0	505	516	508	31	0	
13	0	0	0	0	0	505	513	508	31	0	
14	0	0	0	0	0	505	513	509	31	0	
15	0	0	0	0	0	505	513	511	31	0	
0	0	0	0	0	0	505	512	512	31	0	
1	0	0	0	0	0	506	509	512	31	0	
2	0	0	0	0	1	506	511	511	31	0	
3	0	0	0	0	0	507	511	509	31	0	
4	0	0	0	0	0	506	511	509	32	0	
5	0	0	0	0	0	506	513	506	31	0	
6	0	0	0	0	0	505	514	507	31	0	
7	0	0	0	0	0	505	513	504	31	0	
8	0	0	0	0	0	508	511	505	31	0	
9	0	0	0	0	0	506	514	507	31	0	
10	0	0	0	0	1	507	515	508	31	0	
11	0	0	0	0	0	505	512	506	31	0	
12	0	0	0	0	0	505	508	507	31	0	
13	0	0	0	0	0	503	513	510	31	0	
14	0	0	0	0	0	499	512	510	32	0	
15	0	0	0	0	0	503	513	508	31	0	
0	0	0	0	0	0	504	511	513	31	0	
1	0	0	0	0	0	502	513	513	31	0	
2	0	0	0	0	1	502	510	514	31	0	
3	0	0	0	0	0	503	510	511	32	0	
4	0	0	0	0	0	505	512	510	31	0	
5	0	0	0	0	0	507	512	511	31	0	
6	0	0	0	0	0	504	513	508	31	0	
7	0	0	0	0	0	505	511	509	31	0	
8	0	0	0	0	0	505	513	512	31	0	
9	0	0	0	0	0	504	515	510	31	0	
10	0	0	0	0	1	506	514	508	31	0	
11	0	0	0	0	0	507	515	508	31	0	
12	0	0	0	0	0	507	514	509	31	0	
13	0	0	0	0	0	504	511	510	31	0	
14	0	0	0	0	0	507	508	510	31	0	
15	0	0	0	0	0	505	510	510	31	0	
0	0	0	0	0	0	506	510	511	31	0	
1	0	0	0	0	0	508	510	506	31	0	
2	0	0	0	0	1	505	510	505	31	0	
3	0	0	0	0	0	504	511	505	31	0	
4	0	0	0	0	0	504	513	505	31	0	
5	0	0	0	0	0	505	511	510	31	0	
6	0	0	0	0	0	505	511	511	31	0	
7	0	0	0	0	0	509	515	509	31	0	
8	0	0	0	0	0	505	513	511	31	0	
9	0	0	0	0	0	506	510	510	31	0	
10	0	0	0	0	1	505	514	511	31	0	
11	0	0	0	0	0	504	512	508	31	0	
12	0	0	0	0	0	503	512	511	32	0	
13	0	0	0	0	0	502	512	508	31	0	
14	0	0	0	0	0	503	513	508	31	0	
15	0	0	0	0	0	504	511	508	31	0	
0	0	0	0	0	0	504	512	509	31	0	
1	0	0	0	0	0	508	512	508	31	0	
2	0	0	0	0	1	504	511	510	31	0	
3	0	0	0	0	0	507	510	508	32	0	
4	0	0	0	0	0	504	511	509	31	0	
5	0	0	0	0	0	505	513	507	31	0	
6	0	0	0	0	0	507	511	508	31	0	
7	0	0	0	0	0	505	510	509	31	0	
8	0	0	0	0	0	504	511	508	32	0	
9	0	0	0	0	0	503	513	511	31	0	
10	0	0	0	0	1	504	511	515	31	0	
11	0	0	0	0	0	504	515	513	31	0	
12	0	0	0	0	0	506	514	512	31	0	
13	0	0	0	0	0	504	513	508	31	0	
14	0	0	0	0	0	504	513	508	31	0	
15	0	0	0	0	0	504	512	508	31	0	
0	0	0	0	0	0	503	511	509	31	0	
1	0	0	0	0	0	507	510	508	32	0	
2	0	0	0	0	1	504	511	506	32	0	
3	0	0	0	0	0	504	512	509	32	0	
4	0	0	0	0	0	508	512	505	31	0	
5	0	0	0	0	0	509	511	500	31	0	
6	0	0	0	0	0	509	511	499	31	0	
7	0	0	0	0	0	504	512	504	31	0	
8	0	0	0	0	0	504	511	509	31	0	
9	0	0	0	0	0	502	513	510	31	0	
10	0	0	0	0	1	505	514	511	31	0	
11	0	0	0	0	0	507	516	510	31	0	
12	0	0	0	0	0	509	516	513	31	0	
13	0	0	0	0	0	504	512	518	32	0	
14	0	0	0	0	0	499	508	518	32	0	
15	0	0	0	0	0	502	506	515	32	0	
0	0	0	0	0	0	501	505	515	31	0	
1	0	0	0	0	0	505	508	510	31	0	
2	0	0	0	0	0	504	511	511	31	0	
3	0	0	0	0	0	507	513	509	31	0	
4	0	0	0	0	0	509	514	510	31	0	
5	0	0	0	0	0	507	512	507	31	0	
6	0	0	0	0	0	507	515	507	31	0	
7	0	0	0	0	0	508	515	508	31	0	
8	0	0	0	0	0	508	514	504	31	0	
9	0	0	0	0	0	507	512	503	31	0	
10	0	0	0	0	0	507	511	509	31	0	
11	0	0	0	0	0	504	512	510	31	0	
12	0	0	0	0	0	507	515	509	31	0	
13	0	0	0	0	0	504	514	514	31	0	
14	0	0	0	0	0	504	512	512	31	0	
15	0	0	0	0	0	504	511	508	31	0	
0	0	0	0	0	0	503	511	504	31	0	
1	0	0	0	0	0	502	511	508	31	0	
2	0	0	0	0	0	504	511	507	31	0	
3	0	0	0	0	0	503	513	506	31	0	
4	0	0	0	0	0	504	512	510	31	0	
5	0	0	0	0	0	504	515	511	31	0	
6	0	0	0	0	0	504	513	512	31	0	
7	0	0	0	0	0	504	513	507	31	0	
8	0	0	0	0	0	505	515	507	31	0	
9	0	0	0	0	0	508	512	504	31	0	
10	0	0	0	0	1	511	512	505	32	0	
11	0	0	0	0	0	510	510	513	32	0	
12	0	0	0	0	0	505	512	513	31	0	
13	0	0	0	0	0	503	515	511	31	0	
14	0	0	0	0	0	502	511	511	31	0	
15	0	0	0	0	0	503	512	510	32	0	
0	0	0	0	0	0	503	509	508	31	0	
1	0	0	0	0	0	502	509	508	32	0	
2	0	0	0	0	1	506	512	511	32	0	
3	0	0	0	0	0	504	512	511	32	0	
4	0	0	0	0	0	500	509	512	32	0	
5	0	0	0	0	0	503	510	512	31	0	
6	0	0	0	0	0	505	512	510	31	0	
7	0	0	0	0	0	510	513	511	31	0	
8	0	0	0	0	0	510	515	509	31	0	
9	0	0	0	0	0	510	514	508	31	0	
10	0	0	0	0	1	507	515	510	31	0	
11	0	0	0	0	0	505	512	510	31	0	
12	0	0	0	0	0	505	512	512	32	0	
13	0	0	0	0	0	502	512	510	32	0	
14	0	0	0	0	0	504	513	511	31	0	
15	0	0	0	0	0	504	511	508	31	0	
0	0	0	0	0	0	505	512	508	31	0	
1	0	0	0	0	0	504	512	508	31	0	
2	0	0	0	0	1	503	512	506	31	0	
3	0	0	0	0	0	504	513	505	31	0	
4	0	0	0	0	0	506	513	505	31	0	
5	0	0	0	0	0	507	510	510	31	0	
6	0	0	0	0	0	507	511	512	31	0	
7	0	0	0	0	0	506	511	513	31	0	
8	0	0	0	0	0	503	511	514	31	0	
9	0	0	0	0	0	504	512	511	31	0	
10	0	0	0	0	1	506	512	507	31	0	
11	0	0	0	0	0	508	512	505	31	0	
12	0	0	0	0	0	506	511	501	32	0	
13	0	0	0	0	0	507	513	502	31	0	
14	0	0	0	0	0	507	514	502	31	0	
15	0	0	0	0	0	502	511	508	31	0	
0	0	0	0	0	0	501	510	513	32	0	
1	0	0	0	0	0	503	512	515	32	0	
2	0	0	0	0	1	504	511	514	31	0	
3	0	0	0	0	0	507	509	511	32	0	
4	0	0	0	0	0	507	513	509	32	0	
5	0	0	0	0	0	510	514	511	31	0	
6	0	0	0	0	0	512	512	516	31	0	
7	0	0	0	0	0	506	514	513	31	0	
8	0	0	0	0	0	503	512	513	31	0	
9	0	0	0	0	0	504	513	510	31	0	
10	0	0	0	0	1	503	513	509	31	0	
11	0	0	0	0	0	504	511	507	31	0	
12	0	0	0	0	0	504	511	503	31	0	
13	0	0	0	0	0	504	512	503	31	0	
14	0	0	0	0	0	505	513	505	31	0	
15	0	0	0	0	0	504	513	503	31	0	
0	0	0	0	0	0	504	512	505	31	0	
1	0	0	0	0	0	503	512	508	31	0	
2	0	0	0	0	1	504	511	510	31	0	
3	0	0	0	0	0	503	511	511	31	0	
4	0	0	0	0	0	502	511	513	32	0	
5	0	0	0	0	0	503	514	513	32	0	
6	0	0	0	0	0	503	513	512	31	0	
7	0	0	0	0	0	504	511	509	31	0	
8	0	0	0	0	0	508	513	505	32	0	
9	0	0	0	0	0	512	512	502	32	0	
10	0	0	0	0	1	510	511	507	32	0	
11	0	0	0	0	0	508	513	513	31	0	
12	0	0	0	0	0	505	512	516	31	0	
13	0	0	0	0	0	505	514	514	31	0	
14	0	0	0	0	0	504	512	511	31	0	
15	0	0	0	0	0	504	512	508	31	0	
0	0	0	0	0	0	502	512	508	31	0	
1	0	0	0	0	0	504	510	508	31	0	
2	0	0	0	0	1	503	509	508	31	0	
3	0	0	0	0	0	503	511	508	31	0	
4	0	0	0	0	0	500	510	506	31	0	
5	0	0	0	0	0	508	512	510	31	0	
6	0	0	0	0	0	505	511	512	32	0	
7	0	0	0	0	0	506	511	516	32	0	
8	0	0	0	0	0	506	513	513	32	0	
9	0	0	0	0	0	506	515	511	32	0	
10	0	0	0	0	1	506	512	507	31	0	
11	0	0	0	0	0	508	511	509	31	0	
12	0	0	0	0	0	504	511	510	31	0	
13	0	0	0	0	0	505	512	510	31	0	
14	0	0	0	0	0	507	510	513	31	0	
15	0	0	0	0	0	505	511	512	31	0	
0	0	0	0	0	0	505	512	507	31	0	
1	0	0	0	0	0	505	512	509	31	0	
2	0	0	0	0	1	504	513	511	31	0	
3	0	0	0	0	0	505	513	511	31	0	
4	0	0	0	0	0	509	513	503	31	0	
5	0	0	0	0	0	508	516	502	31	0	
6	0	0	0	0	0	507	515	501	31	0	
7	0	0	0	0	0	507	512	504	32	0	
8	0	0	0	0	0	507	514	505	32	0	
9	0	0	0	0	0	506	511	511	31	0	
10	0	0	0	0	1	503	511	511	31	0	
11	0	0	0	0	0	505	514	511	31	0	
12	0	0	0	0	0	506	512	511	31	0	
13	0	0	0	0	0	504	512	510	31	0	
14	0	0	0	0	0	504	512	511	31	0	
15	0	0	0	0	0	504	512	510	31	0	
0	0	0	0	0	0	504	511	510	31	0	
1	0	0	0	0	0	503	511	510	31	0	
2	0	0	0	0	1	502	512	511	31	0	
3	0	0	0	0	0	504	511	510	31	0	
4	0	0	0	0	0	504	511	507	31	0	
5	0	0	0	0	0	505	511	510	31	0	
6	0	0	0	0	0	507	510	512	32	0	
7	0	0	0	0	0	507	512	513	32	0	
8	0	0	0	0	0	503	511	510	32	0	
9	0	0	0	0	0	504	510	511	32	0	
10	0	0	0	0	1	505	511	508	32	0	
11	0	0	0	0	0	505	514	511	32	0	
12	0	0	0	0	0	503	512	511	31	0	
13	0	0	0	0	0	505	512	512	31	0	
14	0	0	0	0	0	505	511	510	31	0	
15	0	0	0	0	0	504	510	511	31	0	
0	0	0	0	0	0	505	513	508	31	0	
1	0	0	0	0	0	507	512	508	31	0	
2	0	0	0	0	1	504	512	511	31	0	
3	0	0	0	0	0	504	513	511	32	0	
4	0	0	0	0	0	505	511	511	32	0	
5	0	0	0	0	0	506	510	511	32	0	
6	0	0	0	0	0	505	511	508	32	0	
7	0	0	0	0	0	505	512	508	32	0	
8	0	0	0	0	0	504	513	506	31	0	
9	0	0	0	0	0	508	511	505	31	0	
10	0	0	0	0	1	506	513	505	31	0	
11	0	0	0	0	0	506	513	504	31	0	
12	0	0	0	0	0	507	513	507	31	0	
13	0	0	0	0	0	506	511	513	31	0	
14	0	0	0	0	0	505	512	515	31	0	
15	0	0	0	0	0	503	512	510	31	0	
0	0	0	0	0	0	504	513	505	31	0	
1	0	0	0	0	0	507	513	501	31	0	
2	0	0	0	0	1	505	515	500	31	0	
3	0	0	0	0	0	507	515	504	31	0	
4	0	0	0	0	0	507	513	508	31	0	
5	0	0	0	0	0	504	511	509	31	0	
6	0	0	0	0	0	508	513	509	31	0	
7	0	0	0	0	0	505	513	514	31	0	
8	0	0	0	0	0	504	512	516	32	0	
9	0	0	0	0	0	504	511	515	32	0	
10	0	0	0	0	1	502	513	513	32	0	
11	0	0	0	0	0	504	513	512	31	0	
12	0	0	0	0	0	506	511	510	32	0	
13	0	0	0	0	0	506	511	510	31	0	
14	0	0	0	0	0	505	511	508	31	0	
15	0	0	0	0	0	505	511	510	31	0	
0	0	0	0	0	0	505	512	512	31	0	
1	0	0	0	0	0	503	512	511	31	0	
2	0	0	0	0	1	505	511	512	31	0	
3	0	0	0	0	0	504	511	512	31	0	
4	0	0	0	0	0	504	509	510	31	0	
5	0	0	0	0	0	504	512	510	31	0	
6	0	0	0	0	0	503	513	512	31	0	
7	0	0	0	0	0	504	510	511	31	0	
8	0	0	0	0	0	503	512	510	31	0	
9	0	0	0	0	0	502	510	508	32	0	
10	0	0	0	0	1	504	512	505	32	0	
11	0	0	0	0	0	503	513	503	31	0	
12	0	0	0	0	0	502	512	504	31	0	
13	0	0	0	0	0	502	512	506	31	0	
14	0	0	0	0	0	506	512	505	31	0	
15	0	0	0	0	0	508	513	508	31	0	
0	0	0	0	0	0	507	512	508	31	0	
1	0	0	0	0	0	508	511	509	31	0	
2	0	0	0	0	1	507	515	509	31	0	
3	0	0	0	0	0	508	513	511	31	0	
4	0	0	0	0	0	508	512	509	31	0	
5	0	0	0	0	0	508	512	507	31	0	
6	0	0	0	0	0	504	514	508	31	0	
7	0	0	0	0	0	505	515	512	32	0	
8	0	0	0	0	0	505	512	514	32	0	
9	0	0	0	0	0	504	512	513	32	0	
10	0	0	0	0	1	507	512	512	32	0	
11	0	0	0	0	0	507	513	511	31	0	
12	0	0	0	0	0	509	514	508	31	0	
13	0	0	0	0	0	505	511	510	31	0	
14	0	0	0	0	0	504	509	507	31	0	
15	0	0	0	0	0	504	512	505	31	0	
0	0	0	0	0	0	505	512	504	31	0	
1	0	0	0	0	0	505	513	506	31	0	
2	0	0	0	0	1	500	512	510	31	0	
3	0	0	0	0	0	500	511	511	32	0	
4	0	0	0	0	0	502	511	512	32	0	
5	0	0	0	0	0	503	512	510	31	0	
6	0	0	0	0	0	504	512	509	32	0	
7	0	0	0	0	0	506	513	510	31	0	
8	0	0	0	0	0	507	510	510	32	0	
9	0	0	0	0	0	507	511	508	31	0	
10	0	0	0	0	0	505	512	508	31	0	
11	0	0	0	0	0	504	513	511	31	0	
12	0	0	0	0	0	504	513	510	31	0	
13	0	0	0	0	0	504	515	508	31	0	
14	0	0	0	0	0	508	514	507	31	0	
15	0	0	0	0	0	508	513	507	31	0	
0	0	0	0	0	0	507	513	507	31	0	
1	0	0	0	0	0	504	511	508	31	0	
2	0	0	0	0	0	500	509	512	32	0	
3	0	0	0	0	0	500	511	514	32	0	
4	0	0	0	0	0	501	511	513	32	0	
5	0	0	0	0	0	504	509	512	32	0	
6	0	0	0	0	0	507	514	511	32	0	
7	0	0	0	0	0	507	514	510	31	0	
8	0	0	0	0	0	505	511	509	31	0	
9	0	0	0	0	0	504	512	507	31	0	
10	0	0	0	0	0	506	511	507	31	0	
11	0	0	0	0	0	505	511	507	31	0	
12	0	0	0	0	0	506	510	507	31	0	
13	0	0	0	0	0	504	510	510	31	0	
14	0	0	0	0	0	505	512	511	31	0	
15	0	0	0	0	0	505	512	512	31	0	
0	0	0	0	0	0	506	515	512	31	0	
1	0	0	0	0	0	510	514	508	31	0	
2	0	0	0	0	1	510	514	506	31	0	
3	0	0	0	0	0	505	512	507	31	0	
4	0	0	0	0	0	505	512	504	31	0	
5	0	0	0	0	0	504	512	508	32	0	
6	0	0	0	0	0	505	512	510	32	0	
7	0	0	0	0	0	504	511	511	32	0	
8	0	0	0	0	0	506	511	512	32	0	
9	0	0	0	0	0	505	512	511	31	0	
10	0	0	0	0	1	506	513	510	31	0	
11	0	0	0	0	0	505	511	508	31	0	
12	0	0	0	0	0	505	510	508	31	0	
13	0	0	0	0	0	507	511	508	31	0	
14	0	0	0	0	0	507	511	508	31	0	
15	0	0	0	0	0	506	511	509	31	0	
0	0	0	0	0	0	504	512	508	31	0	
1	0	0	0	0	0	501	513	509	31	0	
2	0	0	0	0	1	501	513	510	31	0	
3	0	0	0	0	0	502	512	512	31	0	
4	0	0	0	0	0	504	510	511	31	0	
5	0	0	0	0	0	508	512	511	31	0	
6	0	0	0	0	0	504	515	511	31	0	
7	0	0	0	0	0	504	512	508	31	0	
8	0	0	0	0	0	506	512	509	31	0	
9	0	0	0	0	0	505	510	509	31	0	
10	0	0	0	0	1	504	512	507	31	0	
11	0	0	0	0	0	503	512	508	31	0	
12	0	0	0	0	0	505	512	509	31	0	
13	0	0	0	0	0	505	510	512	31	0	
14	0	0	0	0	0	507	511	511	31	0	
15	0	0	0	0	0	507	512	509	31	0	
0	0	0	0	0	0	508	510	504	31	0	
1	0	0	0	0	0	510	513	505	31	0	
2	0	0	0	0	1	507	511	508	31	0	
3	0	0	0	0	0	504	512	509	31	0	
4	0	0	0	0	0	505	512	510	31	0	
5	0	0	0	0	0	506	512	511	31	0	
6	0	0	0	0	0	505	512	511	31	0	
7	0	0	0	0	0	504	512	509	31	0	
8	0	0	0	0	0	506	513	508	31	0	
9	0	0	0	0	0	506	512	508	31	0	
10	0	0	0	0	1	505	513	509	31	0	
11	0	0	0	0	0	504	514	510	31	0	
12	0	0	0	0	0	504	511	509	31	0	
13	0	0	0	0	0	504	513	510	31	0	
14	0	0	0	0	0	506	511	510	31	0	
15	0	0	0	0	0	505	511	509	31	0	
0	0	0	0	0	0	508	513	511	32	0	
1	0	0	0	0	0	505	512	508	32	0	
2	0	0	0	0	1	505	514	508	31	0	
3	0	0	0	0	0	507	512	508	31	0	
4	0	0	0	0	0	507	512	508	31	0	
5	0	0	0	0	0	507	513	507	31	0	
6	0	0	0	0	0	505	515	508	31	0	
7	0	0	0	0	0	508	512	511	31	0	
8	0	0	0	0	0	503	511	510	31	0	
9	0	0	0	0	0	503	513	512	31	0	
10	0	0	0	0	1	503	513	510	31	0	
11	0	0	0	0	0	503	511	507	31	0	
12	0	0	0	0	0	507	511	509	32	0	
13	0	0	0	0	0	504	511	510	31	0	
14	0	0	0	0	0	505	511	510	31	0	
15	0	0	0	0	0	505	512	513	32	0	
0	0	0	0	0	0	504	512	512	31	0	
1	0	0	0	0	0	504	512	514	31	0	
2	0	0	0	0	1	504	511	511	31	0	
3	0	0	0	0	0	504	511	506	31	0	
4	0	0	0	0	0	504	512	502	31	0	
5	0	0	0	0	0	505	511	499	31	0	
6	0	0	0	0	0	510	509	499	31	0	
7	0	0	0	0	0	507	512	503	31	0	
8	0	0	0	0	0	506	513	506	31	0	
9	0	0	0	0	0	507	514	508	31	0	
10	0	0	0	0	1	503	512	513	31	0	
11	0	0	0	0	0	504	513	511	31	0	
12	0	0	0	0	0	504	512	512	31	0	
13	0	0	0	0	0	507	512	512	31	0	
14	0	0	0	0	0	506	511	514	32	0	
15	0	0	0	0	0	507	511	511	31	0	
0	0	0	0	0	0	504	513	511	31	0	
1	0	0	0	0	0	505	513	508	31	0	
2	0	0	0	0	1	504	513	511	31	0	
3	0	0	0	0	0	505	515	508	31	0	
4	0	0	0	0	0	504	511	509	31	0	
5	0	0	0	0	0	504	512	510	31	0	
6	0	0	0	0	0	506	514	508	31	0	
7	0	0	0	0	0	508	514	508	31	0	
8	0	0	0	0	0	508	513	511	32	0	
9	0	0	0	0	0	504	510	511	32	0	
10	0	0	0	0	1	504	512	510	31	0	
11	0	0	0	0	0	504	509	510	31	0	
12	0	0	0	0	0	506	509	508	31	0	
13	0	0	0	0	0	505	509	507	31	0	
14	0	0	0	0	0	504	509	506	31	0	
15	0	0	0	0	0	507	511	508	31	0	
0	0	0	0	0	0	504	512	511	31	0	
1	0	0	0	0	0	503	515	515	31	0	
2	0	0	0	0	1	504	515	512	31	0	
3	0	0	0	0	0	504	512	510	31	0	
4	0	0	0	0	0	505	513	508	31	0	
5	0	0	0	0	0	506	515	510	31	0	
6	0	0	0	0	0	507	511	510	31	0	
7	0	0	0	0	0	504	510	508	31	0	
8	0	0	0	0	0	505	512	504	31	0	
9	0	0	0	0	0	505	513	506	31	0	
10	0	0	0	0	1	504	514	508	31	0	
11	0	0	0	0	0	507	514	510	31	0	
12	0	0	0	0	0	505	515	508	31	0	
13	0	0	0	0	0	504	512	509	31	0	
14	0	0	0	0	0	506	512	508	31	0	
15	0	0	0	0	0	504	513	508	31	0	
0	0	0	0	0	0	505	510	508	32	0	
1	0	0	0	0	0	504	509	509	31	0	
2	0	0	0	0	1	505	512	508	31	0	
3	0	0	0	0	0	505	513	507	31	0	
4	0	0	0	0	0	508	510	507	31	0	
5	0	0	0	0	0	508	511	511	31	0	
6	0	0	0	0	0	508	508	512	31	0	
7	0	0	0	0	0	505	512	512	31	0	
8	0	0	0	0	0	505	511	508	31	0	
9	0	0	0	0	0	504	512	511	31	0	
