# OpenSignals Text File Format. Version 1
# {"98:D3:71:FE:38:C0": {"position": 0, "device": "bitalino_rev", "device name": "98:D3:71:FE:38:C0", "device connection": "BTH98:D3:71:FE:38:C0", "sampling rate": 1000, "resolution": [4, 1, 1, 1, 1, 10, 10, 10, 10, 6, 6], "firmware version": 1282, "comments": "", "keywords": "", "mode": 0, "sync interval": 2, "date": "2026-6-5", "time": "12:46:9.585", "channels": [1, 2, 3, 4, 5, 6], "sensor": ["RAW", "RAW", "RAW", "RAW", "RAW", "RAW"], "label": ["A1", "A2", "A3", "A4", "A5", "A6"], "column": ["nSeq", "I1", "I2", "O1", "O2", "A1", "A2", "A3", "A4", "A5", "A6"], "special": [{}, {}, {}, {}, {}, {}], "digital IO": [0, 0, 1, 1]}}
# EndOfHeader
0	0	0	0	0	0	503	511	508	31	0	
1	0	0	0	0	0	504	515	507	31	0	
2	0	0	0	0	0	504	512	509	32	0	
3	0	0	0	0	0	504	511	510	31	0	
4	0	0	0	0	0	505	513	508	31	0	
5	0	0	0	0	0	506	512	508	31	0	
6	0	0	0	0	3	506	512	511	31	0	
7	0	0	0	0	0	507	512	510	31	0	
8	0	0	0	0	0	506	513	511	32	0	
9	0	0	0	0	0	505	512	512	31	0	
10	0	0	0	0	0	506	512	508	31	0	
11	0	0	0	0	0	505	513	505	31	0	
12	0	0	0	0	0	508	511	507	31	0	
13	0	0	0	0	0	506	511	508	31	0	
14	0	0	0	0	3	506	512	510	31	0	
15	0	0	0	0	0	505	509	510	31	0	
0	0	0	0	0	0	505	510	508	31	0	
1	0	0	0	0	0	505	510	508	31	0	
2	0	0	0	0	0	503	511	511	31	0	
3	0	0	0	0	0	505	512	511	32	0	
4	0	0	0	0	0	501	515	513	31	0	
5	0	0	0	0	0	505	513	513	31	0	
6	0	0	0	0	2	504	514	513	31	0	
7	0	0	0	0	0	505	512	512	31	0	
8	0	0	0	0	0	506	511	511	31	0	
9	0	0	0	0	0	506	511	509	31	0	
10	0	0	0	0	0	509	511	505	31	0	
11	0	0	0	0	0	506	512	505	31	0	
12	0	0	0	0	0	505	513	507	31	0	
13	0	0	0	0	0	503	513	503	31	0	
14	0	0	0	0	2	504	513	507	31	0	
15	0	0	0	0	0	504	514	508	31	0	
0	0	0	0	0	0	507	513	507	31	0	
1	0	0	0	0	0	504	515	508	31	0	
2	0	0	0	0	0	504	515	510	31	0	
3	0	0	0	0	0	503	514	511	31	0	
4	0	0	0	0	0	505	512	510	32	0	
5	0	0	0	0	0	503	512	509	31	0	
6	0	0	0	0	2	502	510	510	31	0	
7	0	0	0	0	0	505	512	511	31	0	
8	0	0	0	0	0	507	511	510	31	0	
9	0	0	0	0	0	504	512	511	31	0	
10	0	0	0	0	0	505	511	511	32	0	
11	0	0	0	0	0	506	511	511	31	0	
12	0	0	0	0	0	507	513	509	31	0	
13	0	0	0	0	0	508	513	509	31	0	
14	0	0	0	0	1	505	510	508	31	0	
15	0	0	0	0	0	505	509	510	31	0	
0	0	0	0	0	0	504	509	509	31	0	
1	0	0	0	0	0	504	511	508	31	0	
2	0	0	0	0	0	504	511	508	31	0	
3	0	0	0	0	0	504	512	510	31	0	
4	0	0	0	0	0	505	513	510	31	0	
5	0	0	0	0	0	506	513	511	31	0	
6	0	0	0	0	1	504	509	511	31	0	
7	0	0	0	0	0	506	514	511	31	0	
8	0	0	0	0	0	504	513	511	32	0	
9	0	0	0	0	0	504	512	511	31	0	
10	0	0	0	0	0	503	511	509	31	0	
11	0	0	0	0	0	502	510	508	31	0	
12	0	0	0	0	0	501	512	509	31	0	
13	0	0	0	0	0	504	510	510	31	0	
14	0	0	0	0	1	507	510	508	31	0	
15	0	0	0	0	0	507	512	508	31	0	
0	0	0	0	0	0	503	513	506	31	0	
1	0	0	0	0	0	504	512	508	31	0	
2	0	0	0	0	0	505	514	509	31	0	
3	0	0	0	0	0	504	511	510	31	0	
4	0	0	0	0	0	504	512	511	31	0	
5	0	0	0	0	0	506	513	510	31	0	
6	0	0	0	0	2	506	512	509	31	0	
7	0	0	0	0	0	508	512	508	31	0	
8	0	0	0	0	0	508	512	510	31	0	
9	0	0	0	0	0	506	513	509	31	0	
10	0	0	0	0	0	505	514	510	31	0	
11	0	0	0	0	0	504	513	508	31	0	
12	0	0	0	0	0	506	514	509	31	0	
13	0	0	0	0	0	503	513	509	31	0	
14	0	0	0	0	2	507	512	509	31	0	
15	0	0	0	0	0	504	511	512	31	0	
0	0	0	0	0	0	505	512	510	31	0	
1	0	0	0	0	0	507	512	507	31	0	
2	0	0	0	0	0	504	513	508	31	0	
3	0	0	0	0	0	506	513	508	31	0	
4	0	0	0	0	0	507	510	508	31	0	
5	0	0	0	0	0	505	513	511	31	0	
6	0	0	0	0	3	505	512	509	31	0	
7	0	0	0	0	0	506	511	511	31	0	
8	0	0	0	0	0	505	512	511	31	0	
9	0	0	0	0	0	503	508	511	32	0	
10	0	0	0	0	0	502	509	513	31	0	
11	0	0	0	0	0	501	510	512	31	0	
12	0	0	0	0	0	508	511	508	31	0	
13	0	0	0	0	0	507	511	508	31	0	
14	0	0	0	0	2	506	512	508	31	0	
15	0	0	0	0	0	506	513	508	31	0	
0	0	0	0	0	0	506	515	511	31	0	
1	0	0	0	0	0	507	515	510	31	0	
2	0	0	0	0	0	505	513	510	31	0	
3	0	0	0	0	0	504	515	508	31	0	
4	0	0	0	0	0	504	512	507	31	0	
5	0	0	0	0	0	506	510	507	31	0	
6	0	0	0	0	2	505	511	507	31	0	
7	0	0	0	0	0	504	511	511	31	0	
8	0	0	0	0	0	505	511	511	31	0	
9	0	0	0	0	0	507	511	508	31	0	
10	0	0	0	0	0	506	512	508	32	0	
11	0	0	0	0	0	503	512	509	31	0	
12	0	0	0	0	0	503	512	512	31	0	
13	0	0	0	0	0	503	512	511	31	0	
14	0	0	0	0	2	504	512	511	31	0	
15	0	0	0	0	0	506	512	509	31	0	
0	0	0	0	0	0	506	513	508	31	0	
1	0	0	0	0	0	504	511	509	31	0	
2	0	0	0	0	0	504	512	509	31	0	
3	0	0	0	0	0	504	511	509	31	0	
4	0	0	0	0	0	506	511	510	31	0	
5	0	0	0	0	0	505	513	507	31	0	
6	0	0	0	0	2	505	511	508	31	0	
7	0	0	0	0	0	505	512	509	31	0	
8	0	0	0	0	0	503	512	511	32	0	
9	0	0	0	0	0	504	515	511	31	0	
10	0	0	0	0	0	505	512	509	31	0	
11	0	0	0	0	0	506	513	512	31	0	
12	0	0	0	0	0	507	512	511	31	0	
13	0	0	0	0	0	506	511	508	31	0	
14	0	0	0	0	3	504	512	509	31	0	
15	0	0	0	0	0	505	512	509	31	0	
0	0	0	0	0	0	504	512	508	31	0	
1	0	0	0	0	0	507	513	505	31	0	
2	0	0	0	0	0	508	514	508	31	0	
3	0	0	0	0	0	507	512	508	32	0	
4	0	0	0	0	0	504	509	510	32	0	
5	0	0	0	0	0	504	512	508	32	0	
6	0	0	0	0	3	505	514	508	31	0	
7	0	0	0	0	0	504	514	510	31	0	
8	0	0	0	0	0	505	513	508	31	0	
9	0	0	0	0	0	505	511	509	31	0	
10	0	0	0	0	0	504	512	510	31	0	
11	0	0	0	0	0	505	512	510	31	0	
12	0	0	0	0	0	504	514	509	31	0	
13	0	0	0	0	0	504	512	511	31	0	
14	0	0	0	0	2	504	513	508	31	0	
15	0	0	0	0	0	504	513	510	31	0	
0	0	0	0	0	0	505	512	508	31	0	
1	0	0	0	0	0	507	510	507	31	0	
2	0	0	0	0	0	507	512	507	31	0	
3	0	0	0	0	0	506	510	508	32	0	
4	0	0	0	0	0	504	510	507	31	0	
5	0	0	0	0	0	505	511	508	31	0	
6	0	0	0	0	1	506	514	510	31	0	
7	0	0	0	0	0	506	511	509	31	0	
8	0	0	0	0	0	504	512	508	31	0	
9	0	0	0	0	0	503	514	513	31	0	
10	0	0	0	0	0	504	514	510	31	0	
11	0	0	0	0	0	505	515	509	31	0	
12	0	0	0	0	0	507	512	510	31	0	
13	0	0	0	0	0	506	512	509	31	0	
14	0	0	0	0	1	506	511	507	31	0	
15	0	0	0	0	0	506	512	508	31	0	
0	0	0	0	0	0	504	512	511	31	0	
1	0	0	0	0	0	505	511	508	31	0	
2	0	0	0	0	0	506	512	508	31	0	
3	0	0	0	0	0	505	513	507	31	0	
4	0	0	0	0	0	505	512	506	31	0	
5	0	0	0	0	0	504	513	511	31	0	
6	0	0	0	0	1	504	511	511	31	0	
7	0	0	0	0	0	506	509	509	31	0	
8	0	0	0	0	0	505	512	509	32	0	
9	0	0	0	0	0	506	512	510	31	0	
10	0	0	0	0	0	503	511	511	31	0	
11	0	0	0	0	0	504	512	512	31	0	
12	0	0	0	0	0	506	513	512	31	0	
13	0	0	0	0	0	508	513	508	31	0	
14	0	0	0	0	3	504	513	511	31	0	
15	0	0	0	0	0	507	512	510	31	0	
0	0	0	0	0	0	504	512	509	31	0	
1	0	0	0	0	0	507	510	508	31	0	
2	0	0	0	0	0	506	511	506	31	0	
3	0	0	0	0	0	506	510	508	31	0	
4	0	0	0	0	0	508	511	508	31	0	
5	0	0	0	0	0	505	511	507	32	0	
6	0	0	0	0	2	504	514	509	31	0	
7	0	0	0	0	0	503	513	509	31	0	
8	0	0	0	0	0	500	515	510	31	0	
9	0	0	0	0	0	504	513	511	31	0	
10	0	0	0	0	0	503	511	511	31	0	
11	0	0	0	0	0	502	510	512	31	0	
12	0	0	0	0	0	503	512	512	31	0	
13	0	0	0	0	0	504	510	513	31	0	
14	0	0	0	0	2	504	513	511	31	0	
15	0	0	0	0	0	505	512	509	31	0	
0	0	0	0	0	0	505	511	509	31	0	
1	0	0	0	0	0	505	511	505	31	0	
2	0	0	0	0	0	504	512	505	31	0	
3	0	0	0	0	0	507	512	508	31	0	
4	0	0	0	0	2	505	511	508	31	0	
5	0	0	0	0	0	504	513	508	31	0	
6	0	0	0	0	2	504	514	511	31	0	
7	0	0	0	0	0	508	510	510	31	0	
8	0	0	0	0	0	507	512	510	31	0	
9	0	0	0	0	0	504	513	507	31	0	
10	0	0	0	0	0	508	513	507	31	0	
11	0	0	0	0	0	507	516	511	31	0	
12	0	0	0	0	0	506	513	511	31	0	
13	0	0	0	0	0	506	512	510	31	0	
14	0	0	0	0	2	504	511	512	31	0	
15	0	0	0	0	0	504	513	510	31	0	
0	0	0	0	0	0	505	513	509	31	0	
1	0	0	0	0	0	505	512	508	31	0	
2	0	0	0	0	0	507	511	507	31	0	
3	0	0	0	0	0	506	513	509	31	0	
4	0	0	0	0	0	504	512	508	31	0	
5	0	0	0	0	0	503	513	510	31	0	
6	0	0	0	0	3	506	511	508	31	0	
7	0	0	0	0	0	508	512	507	31	0	
8	0	0	0	0	0	507	512	508	31	0	
9	0	0	0	0	0	505	511	508	31	0	
10	0	0	0	0	0	506	511	509	31	0	
11	0	0	0	0	0	504	509	511	31	0	
12	0	0	0	0	0	504	513	511	31	0	
13	0	0	0	0	0	505	511	511	31	0	
14	0	0	0	0	2	505	513	508	31	0	
15	0	0	0	0	0	504	511	511	31	0	
0	0	0	0	0	0	504	512	509	31	0	
1	0	0	0	0	0	504	515	510	31	0	
2	0	0	0	0	0	504	515	511	31	0	
3	0	0	0	0	0	505	513	510	31	0	
4	0	0	0	0	0	505	513	508	31	0	
5	0	0	0	0	0	505	513	509	31	0	
6	0	0	0	0	2	505	514	507	31	0	
7	0	0	0	0	0	506	513	509	31	0	
8	0	0	0	0	0	503	510	509	31	0	
9	0	0	0	0	0	504	510	509	31	0	
10	0	0	0	0	0	503	509	508	32	0	
11	0	0	0	0	0	503	511	512	31	0	
12	0	0	0	0	0	505	508	510	31	0	
13	0	0	0	0	0	504	511	510	31	0	
14	0	0	0	0	2	505	513	512	31	0	
15	0	0	0	0	0	505	511	511	32	0	
0	0	0	0	0	0	503	512	514	31	0	
1	0	0	0	0	0	505	513	508	31	0	
2	0	0	0	0	0	504	515	511	31	0	
3	0	0	0	0	0	505	514	508	31	0	
4	0	0	0	0	0	505	512	508	31	0	
5	0	0	0	0	0	505	512	505	31	0	
6	0	0	0	0	2	506	509	508	31	0	
7	0	0	0	0	0	509	511	508	31	0	
8	0	0	0	0	0	508	514	508	31	0	
9	0	0	0	0	0	504	511	507	31	0	
10	0	0	0	0	0	504	513	508	31	0	
11	0	0	0	0	0	505	513	508	31	0	
12	0	0	0	0	0	505	512	509	31	0	
13	0	0	0	0	0	508	512	508	31	0	
14	0	0	0	0	2	505	513	510	31	0	
15	0	0	0	0	0	505	514	512	31	0	
0	0	0	0	0	0	504	513	511	31	0	
1	0	0	0	0	0	505	511	511	32	0	
2	0	0	0	0	0	504	513	510	31	0	
3	0	0	0	0	0	502	512	510	31	0	
4	0	0	0	0	0	503	513	510	31	0	
5	0	0	0	0	0	504	511	508	31	0	
6	0	0	0	0	1	507	511	507	31	0	
7	0	0	0	0	0	509	512	508	31	0	
8	0	0	0	0	0	507	510	508	31	0	
9	0	0	0	0	0	504	512	509	31	0	
10	0	0	0	0	0	502	511	510	31	0	
11	0	0	0	0	0	504	510	510	32	0	
12	0	0	0	0	0	505	513	510	32	0	
13	0	0	0	0	0	508	513	508	31	0	
14	0	0	0	0	1	505	512	509	31	0	
15	0	0	0	0	0	504	513	509	31	0	
0	0	0	0	0	0	504	510	510	31	0	
1	0	0	0	0	0	505	512	509	31	0	
2	0	0	0	0	0	505	508	511	31	0	
3	0	0	0	0	0	504	511	511	31	0	
4	0	0	0	0	0	503	512	509	31	0	
5	0	0	0	0	0	504	513	508	31	0	
6	0	0	0	0	1	504	514	508	31	0	
7	0	0	0	0	0	505	515	507	31	0	
8	0	0	0	0	0	508	513	506	31	0	
9	0	0	0	0	0	505	511	512	31	0	
10	0	0	0	0	0	503	510	509	31	0	
11	0	0	0	0	0	502	511	511	31	0	
12	0	0	0	0	0	504	512	507	31	0	
13	0	0	0	0	0	507	511	508	31	0	
14	0	0	0	0	2	507	512	507	31	0	
15	0	0	0	0	0	508	513	509	31	0	
0	0	0	0	0	0	508	511	510	32	0	
1	0	0	0	0	0	505	512	511	31	0	
2	0	0	0	0	0	504	512	512	31	0	
3	0	0	0	0	0	503	512	511	31	0	
4	0	0	0	0	0	504	512	512	31	0	
5	0	0	0	0	0	503	514	510	31	0	
6	0	0	0	0	2	504	512	508	31	0	
7	0	0	0	0	0	505	513	508	31	0	
8	0	0	0	0	0	507	513	506	31	0	
9	0	0	0	0	0	505	513	508	31	0	
10	0	0	0	0	0	503	513	507	31	0	
11	0	0	0	0	0	504	512	509	31	0	
12	0	0	0	0	0	504	509	509	31	0	
13	0	0	0	0	0	505	512	508	31	0	
14	0	0	0	0	2	504	511	510	31	0	
15	0	0	0	0	0	505	510	511	31	0	
0	0	0	0	0	0	503	511	511	31	0	
1	0	0	0	0	0	503	511	511	31	0	
2	0	0	0	0	0	503	510	511	31	0	
3	0	0	0	0	0	504	512	511	31	0	
4	0	0	0	0	0	505	515	508	31	0	
5	0	0	0	0	0	507	510	507	31	0	
6	0	0	0	0	2	507	511	507	31	0	
7	0	0	0	0	0	507	512	508	31	0	
8	0	0	0	0	0	505	513	507	31	0	
9	0	0	0	0	0	508	514	507	31	0	
10	0	0	0	0	0	505	513	510	31	0	
11	0	0	0	0	0	504	514	509	31	0	
12	0	0	0	0	0	506	511	508	31	0	
13	0	0	0	0	0	505	515	509	31	0	
14	0	0	0	0	2	505	513	509	31	0	
15	0	0	0	0	0	504	512	508	31	0	
0	0	0	0	0	0	505	511	511	31	0	
1	0	0	0	0	0	505	510	510	31	0	
2	0	0	0	0	0	506	510	511	32	0	
3	0	0	0	0	0	503	511	510	32	0	
4	0	0	0	0	0	502	511	511	32	0	
5	0	0	0	0	0	503	512	514	32	0	
6	0	0	0	0	2	504	511	512	31	0	
7	0	0	0	0	0	505	514	508	31	0	
8	0	0	0	0	0	505	511	510	31	0	
9	0	0	0	0	0	505	512	508	31	0	
10	0	0	0	0	0	506	512	509	31	0	
11	0	0	0	0	0	510	514	505	31	0	
12	0	0	0	0	0	507	512	506	31	0	
13	0	0	0	0	0	507	511	508	31	0	
14	0	0	0	0	2	504	511	508	31	0	
15	0	0	0	0	0	504	512	511	31	0	
0	0	0	0	0	0	503	513	511	31	0	
1	0	0	0	0	0	503	510	510	31	0	
2	0	0	0	0	0	504	511	511	31	0	
3	0	0	0	0	0	504	512	510	31	0	
4	0	0	0	0	0	504	512	510	31	0	
5	0	0	0	0	0	504	511	510	31	0	
6	0	0	0	0	2	505	513	511	32	0	
7	0	0	0	0	0	503	512	511	31	0	
8	0	0	0	0	0	502	512	510	31	0	
9	0	0	0	0	0	504	512	508	31	0	
10	0	0	0	0	0	505	513	507	31	0	
11	0	0	0	0	0	508	513	508	31	0	
12	0	0	0	0	0	507	511	508	31	0	
13	0	0	0	0	0	508	514	508	31	0	
14	0	0	0	0	2	504	511	506	31	0	
15	0	0	0	0	0	506	510	508	31	0	
0	0	0	0	0	0	508	512	510	31	0	
1	0	0	0	0	0	507	514	509	31	0	
2	0	0	0	0	0	506	512	511	31	0	
3	0	0	0	0	0	507	511	512	32	0	
4	0	0	0	0	0	505	508	512	31	0	
5	0	0	0	0	0	505	512	512	31	0	
6	0	0	0	0	2	505	513	510	31	0	
7	0	0	0	0	0	503	513	509	31	0	
8	0	0	0	0	0	504	511	511	31	0	
9	0	0	0	0	0	504	511	508	31	0	
10	0	0	0	0	0	503	512	509	31	0	
11	0	0	0	0	0	503	512	508	31	0	
12	0	0	0	0	0	505	512	508	31	0	
13	0	0	0	0	0	504	511	507	31	0	
14	0	0	0	0	2	508	510	507	31	0	
15	0	0	0	0	0	507	511	508	31	0	
0	0	0	0	0	0	506	513	509	31	0	
1	0	0	0	0	0	506	512	507	31	0	
2	0	0	0	0	0	507	515	509	31	0	
3	0	0	0	0	0	506	516	512	31	0	
4	0	0	0	0	0	505	515	513	31	0	
5	0	0	0	0	0	503	513	512	31	0	
6	0	0	0	0	1	503	513	511	31	0	
7	0	0	0	0	0	505	511	510	31	0	
8	0	0	0	0	0	505	510	509	31	0	
9	0	0	0	0	0	504	512	510	31	0	
10	0	0	0	0	0	504	511	508	31	0	
11	0	0	0	0	0	504	511	507	31	0	
12	0	0	0	0	0	503	510	506	31	0	
13	0	0	0	0	0	503	512	509	31	0	
14	0	0	0	0	1	507	514	510	31	0	
15	0	0	0	0	0	506	515	506	31	0	
0	0	0	0	0	0	508	513	507	31	0	
1	0	0	0	0	0	507	511	511	31	0	
2	0	0	0	0	0	505	512	510	31	0	
3	0	0	0	0	0	504	512	511	31	0	
4	0	0	0	0	0	505	511	511	31	0	
5	0	0	0	0	0	504	512	513	31	0	
6	0	0	0	0	1	505	512	511	31	0	
7	0	0	0	0	0	504	513	509	31	0	
8	0	0	0	0	0	504	512	509	31	0	
9	0	0	0	0	0	507	510	508	31	0	
10	0	0	0	0	0	507	509	510	31	0	
11	0	0	0	0	0	504	509	508	31	0	
12	0	0	0	0	0	508	510	509	31	0	
13	0	0	0	0	0	507	512	508	31	0	
14	0	0	0	0	3	507	511	510	31	0	
15	0	0	0	0	0	505	513	507	31	0	
0	0	0	0	0	0	504	515	509	31	0	
1	0	0	0	0	0	504	514	510	31	0	
2	0	0	0	0	0	506	515	510	31	0	
3	0	0	0	0	0	506	512	508	31	0	
4	0	0	0	0	0	506	512	508	31	0	
5	0	0	0	0	0	505	510	511	31	0	
6	0	0	0	0	2	504	510	511	31	0	
7	0	0	0	0	0	504	509	512	31	0	
8	0	0	0	0	0	504	513	510	31	0	
9	0	0	0	0	0	503	512	512	31	0	
10	0	0	0	0	0	504	515	510	32	0	
11	0	0	0	0	0	503	510	508	31	0	
12	0	0	0	0	0	506	512	507	31	0	
13	0	0	0	0	0	506	513	505	31	0	
14	0	0	0	0	3	505	512	507	31	0	
15	0	0	0	0	0	508	513	508	31	0	
0	0	0	0	0	0	505	514	507	31	0	
1	0	0	0	0	0	505	515	511	31	0	
2	0	0	0	0	0	504	513	510	31	0	
3	0	0	0	0	0	504	514	511	32	0	
4	0	0	0	0	0	505	512	510	31	0	
5	0	0	0	0	0	504	512	511	31	0	
6	0	0	0	0	2	504	513	511	31	0	
7	0	0	0	0	0	507	510	511	31	0	
8	0	0	0	0	0	504	510	508	31	0	
9	0	0	0	0	0	504	511	509	31	0	
10	0	0	0	0	0	505	510	509	31	0	
11	0	0	0	0	0	508	508	511	31	0	
12	0	0	0	0	0	505	510	508	31	0	
13	0	0	0	0	0	505	510	506	31	0	
14	0	0	0	0	2	506	513	510	31	0	
15	0	0	0	0	0	504	512	510	31	0	
0	0	0	0	0	0	505	513	509	31	0	
1	0	0	0	0	0	505	513	507	31	0	
2	0	0	0	0	0	507	515	507	31	0	
3	0	0	0	0	0	505	514	510	31	0	
4	0	0	0	0	0	505	514	508	31	0	
5	0	0	0	0	0	508	515	509	31	0	
6	0	0	0	0	2	508	515	511	31	0	
7	0	0	0	0	0	507	514	509	31	0	
8	0	0	0	0	0	505	514	507	31	0	
9	0	0	0	0	0	507	514	507	31	0	
10	0	0	0	0	0	504	508	509	31	0	
11	0	0	0	0	0	504	510	511	31	0	
12	0	0	0	0	0	502	508	511	31	0	
13	0	0	0	0	0	501	508	511	32	0	
14	0	0	0	0	2	502	510	511	31	0	
15	0	0	0	0	0	502	510	509	31	0	
0	0	0	0	0	0	504	510	509	31	0	
1	0	0	0	0	0	503	511	508	31	0	
2	0	0	0	0	0	504	514	508	31	0	
3	0	0	0	0	0	504	510	510	31	0	
4	0	0	0	0	0	505	512	509	31	0	
5	0	0	0	0	0	507	515	508	31	0	
6	0	0	0	0	2	507	513	507	31	0	
7	0	0	0	0	0	507	513	509	31	0	
8	0	0	0	0	0	504	515	508	31	0	
9	0	0	0	0	0	506	512	510	31	0	
10	0	0	0	0	0	504	511	509	31	0	
11	0	0	0	0	0	507	509	508	31	0	
12	0	0	0	0	0	508	515	511	31	0	
13	0	0	0	0	0	505	514	510	31	0	
14	0	0	0	0	2	505	511	510	31	0	
15	0	0	0	0	0	505	511	509	32	0	
0	0	0	0	0	0	503	510	510	31	0	
1	0	0	0	0	0	505	511	508	31	0	
2	0	0	0	0	0	505	512	509	31	0	
3	0	0	0	0	0	505	513	511	31	0	
4	0	0	0	0	0	505	513	511	31	0	
5	0	0	0	0	0	504	513	510	31	0	
6	0	0	0	0	2	503	513	510	31	0	
7	0	0	0	0	0	503	512	508	31	0	
8	0	0	0	0	0	508	511	507	31	0	
9	0	0	0	0	0	507	511	509	31	0	
10	0	0	0	0	0	506	509	511	31	0	
11	0	0	0	0	0	504	511	511	31	0	
12	0	0	0	0	0	504	513	511	31	0	
13	0	0	0	0	0	505	511	510	31	0	
14	0	0	0	0	1	505	513	510	31	0	
15	0	0	0	0	0	501	512	508	32	0	
0	0	0	0	0	0	504	514	509	31	0	
1	0	0	0	0	0	507	513	506	31	0	
2	0	0	0	0	0	508	513	507	31	0	
3	0	0	0	0	0	506	515	507	31	0	
4	0	0	0	0	0	504	512	510	31	0	
5	0	0	0	0	0	505	510	509	31	0	
6	0	0	0	0	1	505	508	510	31	0	
7	0	0	0	0	0	503	511	510	31	0	
8	0	0	0	0	0	505	511	511	31	0	
9	0	0	0	0	0	503	511	509	31	0	
10	0	0	0	0	0	504	512	508	31	0	
11	0	0	0	0	0	504	510	513	32	0	
12	0	0	0	0	0	505	510	510	32	0	
13	0	0	0	0	0	505	510	510	31	0	
14	0	0	0	0	1	507	511	508	31	0	
15	0	0	0	0	0	507	512	508	31	0	
0	0	0	0	0	0	504	512	509	31	0	
1	0	0	0	0	0	508	514	510	31	0	
2	0	0	0	0	0	506	512	507	31	0	
3	0	0	0	0	0	502	515	509	31	0	
4	0	0	0	0	0	506	515	510	31	0	
5	0	0	0	0	0	504	513	510	31	0	
6	0	0	0	0	2	505	512	511	31	0	
7	0	0	0	0	0	506	512	510	31	0	
8	0	0	0	0	0	505	511	509	31	0	
9	0	0	0	0	0	505	512	508	31	0	
10	0	0	0	0	0	504	509	510	31	0	
11	0	0	0	0	0	505	512	509	31	0	
12	0	0	0	0	0	505	512	510	31	0	
13	0	0	0	0	0	506	512	510	31	0	
14	0	0	0	0	2	507	511	510	31	0	
15	0	0	0	0	0	507	510	509	31	0	
0	0	0	0	0	0	507	510	504	31	0	
1	0	0	0	0	0	506	510	508	31	0	
2	0	0	0	0	0	506	513	508	31	0	
3	0	0	0	0	0	507	512	511	31	0	
4	0	0	0	0	0	504	510	511	31	0	
5	0	0	0	0	0	502	511	510	31	0	
6	0	0	0	0	2	502	510	510	31	0	
7	0	0	0	0	0	503	512	508	31	0	
8	0	0	0	0	0	505	514	510	31	0	
9	0	0	0	0	0	503	514	511	31	0	
10	0	0	0	0	0	505	513	509	32	0	
11	0	0	0	0	0	504	513	510	31	0	
12	0	0	0	0	0	504	512	507	31	0	
13	0	0	0	0	0	504	511	511	31	0	
14	0	0	0	0	3	506	511	508	31	0	
15	0	0	0	0	0	505	510	509	31	0	
0	0	0	0	0	0	504	512	509	31	0	
1	0	0	0	0	0	504	513	508	31	0	
2	0	0	0	0	0	506	512	511	31	0	
3	0	0	0	0	0	505	512	512	31	0	
4	0	0	0	0	0	505	510	511	31	0	
5	0	0	0	0	0	505	514	509	31	0	
6	0	0	0	0	2	504	513	509	31	0	
7	0	0	0	0	0	507	514	510	31	0	
8	0	0	0	0	0	503	511	511	31	0	
9	0	0	0	0	0	508	512	509	31	0	
10	0	0	0	0	0	507	510	508	31	0	
11	0	0	0	0	0	507	511	510	31	0	
12	0	0	0	0	0	505	512	511	31	0	
13	0	0	0	0	0	506	512	510	31	0	
14	0	0	0	0	2	505	513	509	31	0	
15	0	0	0	0	0	505	512	509	31	0	
0	0	0	0	0	0	504	513	507	31	0	
1	0	0	0	0	0	504	513	508	31	0	
2	0	0	0	0	0	505	511	509	31	0	
3	0	0	0	0	0	507	510	508	31	0	
4	0	0	0	0	0	507	511	508	31	0	
5	0	0	0	0	0	506	510	506	31	0	
6	0	0	0	0	2	504	512	506	31	0	
7	0	0	0	0	0	503	513	509	31	0	
8	0	0	0	0	0	504	515	508	31	0	
9	0	0	0	0	0	505	515	511	31	0	
10	0	0	0	0	0	505	514	511	31	0	
11	0	0	0	0	0	505	514	508	31	0	
12	0	0	0	0	0	505	510	511	31	0	
13	0	0	0	0	0	504	510	513	31	0	
14	0	0	0	0	2	505	510	511	31	0	
15	0	0	0	0	0	504	510	511	31	0	
0	0	0	0	0	0	505	509	508	31	0	
1	0	0	0	0	0	503	510	509	31	0	
2	0	0	0	0	0	503	512	509	31	0	
3	0	0	0	0	0	502	511	508	31	0	
4	0	0	0	0	0	504	511	508	31	0	
5	0	0	0	0	0	503	511	507	31	0	
6	0	0	0	0	3	505	511	508	31	0	
7	0	0	0	0	0	505	512	509	31	0	
8	0	0	0	0	0	508	512	510	31	0	
9	0	0	0	0	0	504	512	512	31	0	
10	0	0	0	0	0	504	513	511	31	0	
11	0	0	0	0	0	504	512	511	31	0	
12	0	0	0	0	0	506	514	510	31	0	
13	0	0	0	0	0	504	515	511	32	0	
14	0	0	0	0	3	506	513	511	31	0	
15	0	0	0	0	0	505	510	510	31	0	
0	0	0	0	0	0	506	512	510	31	0	
1	0	0	0	0	0	506	512	510	31	0	
2	0	0	0	0	0	506	512	507	31	0	
3	0	0	0	0	0	505	512	506	31	0	
4	0	0	0	0	0	506	514	506	31	0	
5	0	0	0	0	0	505	512	505	31	0	
6	0	0	0	0	2	504	514	507	31	0	
7	0	0	0	0	0	506	510	505	31	0	
8	0	0	0	0	0	505	514	509	31	0	
9	0	0	0	0	0	506	509	510	31	0	
10	0	0	0	0	0	504	509	511	31	0	
11	0	0	0	0	0	505	511	513	31	0	
12	0	0	0	0	0	504	513	515	31	0	
13	0	0	0	0	0	505	516	512	31	0	
14	0	0	0	0	1	505	513	510	31	0	
15	0	0	0	0	0	505	514	508	31	0	
0	0	0	0	0	0	506	513	508	31	0	
1	0	0	0	0	0	504	512	511	31	0	
2	0	0	0	0	0	505	511	509	31	0	
3	0	0	0	0	0	504	508	511	32	0	
4	0	0	0	0	0	505	510	508	32	0	
5	0	0	0	0	0	505	509	508	31	0	
6	0	0	0	0	1	505	510	507	31	0	
7	0	0	0	0	0	506	512	508	31	0	
8	0	0	0	0	0	503	512	509	31	0	
9	0	0	0	0	0	504	512	508	31	0	
10	0	0	0	0	0	503	516	510	31	0	
11	0	0	0	0	0	504	513	511	31	0	
12	0	0	0	0	0	505	513	509	31	0	
13	0	0	0	0	0	506	512	509	31	0	
14	0	0	0	0	1	507	512	510	31	0	
15	0	0	0	0	0	507	512	511	31	0	
0	0	0	0	0	0	507	514	512	31	0	
1	0	0	0	0	0	504	510	511	31	0	
2	0	0	0	0	0	507	512	510	31	0	
3	0	0	0	0	0	505	511	510	31	0	
4	0	0	0	0	0	505	511	510	31	0	
5	0	0	0	0	0	505	514	508	31	0	
6	0	0	0	0	2	505	512	507	31	0	
7	0	0	0	0	0	505	512	509	31	0	
8	0	0	0	0	0	504	511	510	31	0	
9	0	0	0	0	0	505	512	510	31	0	
10	0	0	0	0	0	504	513	508	31	0	
11	0	0	0	0	0	503	512	510	31	0	
12	0	0	0	0	0	505	512	510	31	0	
13	0	0	0	0	0	504	513	508	31	0	
14	0	0	0	0	2	505	511	510	31	0	
15	0	0	0	0	0	504	508	509	31	0	
0	0	0	0	0	0	507	509	511	31	0	
1	0	0	0	0	0	507	510	510	31	0	
2	0	0	0	0	0	505	510	511	32	0	
3	0	0	0	0	0	507	512	513	32	0	
4	0	0	0	0	0	505	516	508	31	0	
5	0	0	0	0	0	509	516	506	31	0	
6	0	0	0	0	2	506	515	506	31	0	
7	0	0	0	0	0	503	514	507	31	0	
8	0	0	0	0	0	504	511	505	31	0	
9	0	0	0	0	0	504	511	507	31	0	
10	0	0	0	0	0	506	512	504	31	0	
11	0	0	0	0	0	506	512	507	31	0	
12	0	0	0	0	0	505	510	508	31	0	
13	0	0	0	0	0	504	510	511	32	0	
14	0	0	0	0	2	504	511	509	31	0	
15	0	0	0	0	0	502	513	511	31	0	
0	0	0	0	0	0	504	515	511	31	0	
1	0	0	0	0	0	508	516	510	31	0	
2	0	0	0	0	0	507	512	509	31	0	
3	0	0	0	0	0	507	512	511	31	0	
4	0	0	0	0	0	504	510	508	31	0	
5	0	0	0	0	0	504	512	508	32	0	
6	0	0	0	0	2	504	508	511	32	0	
7	0	0	0	0	0	504	510	511	32	0	
8	0	0	0	0	0	503	510	513	32	0	
9	0	0	0	0	0	503	513	511	31	0	
10	0	0	0	0	0	505	513	509	31	0	
11	0	0	0	0	0	507	513	508	31	0	
12	0	0	0	0	0	506	510	509	31	0	
13	0	0	0	0	0	505	512	509	31	0	
14	0	0	0	0	3	504	513	511	31	0	
15	0	0	0	0	0	507	515	510	31	0	
0	0	0	0	0	0	507	514	512	31	0	
1	0	0	0	0	0	505	510	510	32	0	
2	0	0	0	0	0	505	511	511	31	0	
3	0	0	0	0	0	503	511	510	31	0	
4	0	0	0	0	0	506	513	509	31	0	
5	0	0	0	0	0	505	513	508	31	0	
6	0	0	0	0	2	507	512	511	31	0	
7	0	0	0	0	0	508	512	509	31	0	
8	0	0	0	0	0	506	513	507	31	0	
9	0	0	0	0	0	505	512	507	31	0	
10	0	0	0	0	0	505	512	508	31	0	
11	0	0	0	0	0	506	509	507	31	0	
12	0	0	0	0	0	504	509	507	31	0	
13	0	0	0	0	0	507	512	511	31	0	
14	0	0	0	0	2	505	511	509	31	0	
15	0	0	0	0	0	504	511	511	32	0	
0	0	0	0	0	0	502	512	515	32	0	
1	0	0	0	0	0	504	513	510	31	0	
2	0	0	0	0	0	505	511	510	32	0	
3	0	0	0	0	0	504	511	513	31	0	
4	0	0	0	0	0	505	515	510	31	0	
5	0	0	0	0	0	506	513	506	31	0	
6	0	0	0	0	2	505	510	505	31	0	
7	0	0	0	0	0	505	508	509	31	0	
8	0	0	0	0	0	506	508	508	31	0	
9	0	0	0	0	0	508	509	501	31	0	
10	0	0	0	0	0	506	511	505	31	0	
11	0	0	0	0	0	506	513	506	31	0	
12	0	0	0	0	0	505	513	507	31	0	
13	0	0	0	0	0	508	513	509	31	0	
14	0	0	0	0	3	503	512	507	31	0	
15	0	0	0	0	0	505	513	507	31	0	
0	0	0	0	0	0	504	513	508	31	0	
1	0	0	0	0	0	504	513	513	31	0	
2	0	0	0	0	0	504	513	511	31	0	
3	0	0	0	0	0	504	512	509	31	0	
4	0	0	0	0	0	505	513	509	31	0	
5	0	0	0	0	0	507	515	509	31	0	
6	0	0	0	0	3	506	512	508	31	0	
7	0	0	0	0	0	507	511	510	31	0	
8	0	0	0	0	0	504	512	506	31	0	
9	0	0	0	0	0	503	510	510	31	0	
10	0	0	0	0	0	504	511	511	31	0	
11	0	0	0	0	0	503	511	508	31	0	
12	0	0	0	0	0	506	512	510	31	0	
13	0	0	0	0	0	503	513	510	31	0	
14	0	0	0	0	1	504	511	510	31	0	
15	0	0	0	0	0	505	511	512	31	0	
0	0	0	0	0	0	502	513	513	31	0	
1	0	0	0	0	0	500	512	513	31	0	
2	0	0	0	0	0	502	511	510	31	0	
3	0	0	0	0	0	502	513	512	31	0	
4	0	0	0	0	0	505	513	510	31	0	
5	0	0	0	0	0	507	514	511	31	0	
6	0	0	0	0	1	507	513	510	31	0	
7	0	0	0	0	0	507	511	510	31	0	
8	0	0	0	0	0	505	511	506	31	0	
9	0	0	0	0	0	507	511	508	32	0	
10	0	0	0	0	0	505	511	509	32	0	
11	0	0	0	0	0	507	512	509	31	0	
12	0	0	0	0	0	507	511	509	31	0	
13	0	0	0	0	0	506	512	510	31	0	
14	0	0	0	0	2	505	513	511	31	0	
15	0	0	0	0	0	505	511	510	31	0	
0	0	0	0	0	0	505	513	510	31	0	
1	0	0	0	0	0	504	513	508	31	0	
2	0	0	0	0	0	505	513	511	31	0	
3	0	0	0	0	0	505	513	511	31	0	
4	0	0	0	0	0	505	510	511	31	0	
5	0	0	0	0	0	508	509	511	31	0	
6	0	0	0	0	3	505	510	512	31	0	
7	0	0	0	0	0	505	511	507	32	0	
8	0	0	0	0	0	503	511	509	31	0	
9	0	0	0	0	0	507	514	509	31	0	
10	0	0	0	0	0	508	513	506	31	0	
11	0	0	0	0	0	505	514	508	31	0	
12	0	0	0	0	0	507	511	507	31	0	
13	0	0	0	0	0	506	513	511	32	0	
14	0	0	0	0	2	505	510	510	31	0	
15	0	0	0	0	0	502	512	510	31	0	
0	0	0	0	0	0	506	512	511	31	0	
1	0	0	0	0	0	506	512	510	31	0	
2	0	0	0	0	0	504	511	508	31	0	
3	0	0	0	0	0	504	513	509	31	0	
4	0	0	0	0	0	501	512	510	31	0	
5	0	0	0	0	0	502	511	512	31	0	
6	0	0	0	0	2	502	512	508	31	0	
7	0	0	0	0	0	504	514	509	31	0	
8	0	0	0	0	0	505	511	509	31	0	
9	0	0	0	0	0	507	510	508	31	0	
10	0	0	0	0	0	507	512	507	31	0	
11	0	0	0	0	0	508	513	505	31	0	
12	0	0	0	0	0	506	513	508	31	0	
13	0	0	0	0	0	507	512	507	31	0	
14	0	0	0	0	2	505	509	509	31	0	
15	0	0	0	0	0	503	511	509	31	0	
0	0	0	0	0	0	500	511	513	31	0	
1	0	0	0	0	0	502	511	511	31	0	
2	0	0	0	0	0	505	512	511	31	0	
3	0	0	0	0	0	508	514	509	31	0	
4	0	0	0	0	0	508	511	507	31	0	
5	0	0	0	0	0	506	513	510	31	0	
6	0	0	0	0	2	504	509	508	31	0	
7	0	0	0	0	0	504	515	511	31	0	
8	0	0	0	0	0	506	514	510	32	0	
9	0	0	0	0	0	507	516	512	32	0	
10	0	0	0	0	0	504	515	509	32	0	
11	0	0	0	0	0	504	512	508	31	0	
12	0	0	0	0	0	504	511	506	31	0	
13	0	0	0	0	0	505	511	508	31	0	
14	0	0	0	0	2	504	511	510	31	0	
15	0	0	0	0	0	505	509	511	31	0	
0	0	0	0	0	0	505	512	511	32	0	
1	0	0	0	0	0	505	511	508	31	0	
2	0	0	0	0	0	507	512	510	31	0	
3	0	0	0	0	0	505	512	511	31	0	
4	0	0	0	0	0	503	512	509	31	0	
5	0	0	0	0	0	505	514	508	31	0	
6	0	0	0	0	2	508	514	508	31	0	
7	0	0	0	0	0	507	513	509	31	0	
8	0	0	0	0	0	508	513	512	32	0	
9	0	0	0	0	0	505	511	511	32	0	
10	0	0	0	0	0	502	511	509	31	0	
11	0	0	0	0	0	504	511	508	31	0	
12	0	0	0	0	0	504	513	506	31	0	
13	0	0	0	0	0	506	513	506	31	0	
14	0	0	0	0	2	505	513	505	31	0	
15	0	0	0	0	0	508	513	510	31	0	
0	0	0	0	0	0	508	514	510	31	0	
1	0	0	0	0	0	508	516	506	31	0	
2	0	0	0	0	0	509	511	508	31	0	
3	0	0	0	0	0	507	512	505	31	0	
4	0	0	0	0	0	504	514	511	31	0	
5	0	0	0	0	0	507	512	512	31	0	
6	0	0	0	0	2	504	512	511	31	0	
7	0	0	0	0	0	503	511	512	31	0	
8	0	0	0	0	0	504	512	512	31	0	
9	0	0	0	0	0	505	512	512	31	0	
10	0	0	0	0	0	500	508	509	31	0	
11	0	0	0	0	0	503	510	511	32	0	
12	0	0	0	0	0	503	509	510	32	0	
13	0	0	0	0	0	504	510	509	31	0	
14	0	0	0	0	2	504	512	508	32	0	
15	0	0	0	0	0	503	511	505	31	0	
0	0	0	0	0	0	507	514	507	31	0	
1	0	0	0	0	0	507	513	508	31	0	
2	0	0	0	0	0	506	512	507	31	0	
3	0	0	0	0	0	505	510	509	32	0	
4	0	0	0	0	0	505	511	510	31	0	
5	0	0	0	0	0	504	510	511	32	0	
6	0	0	0	0	1	505	512	512	32	0	
7	0	0	0	0	0	504	511	514	32	0	
8	0	0	0	0	0	504	510	511	32	0	
9	0	0	0	0	0	505	512	510	31	0	
10	0	0	0	0	0	506	512	511	31	0	
11	0	0	0	0	0	504	511	509	31	0	
12	0	0	0	0	0	504	511	506	31	0	
13	0	0	0	0	0	504	512	506	31	0	
14	0	0	0	0	1	504	513	506	31	0	
15	0	0	0	0	0	504	512	507	32	0	
0	0	0	0	0	0	504	511	508	32	0	
1	0	0	0	0	0	503	510	510	31	0	
2	0	0	0	0	0	503	512	510	31	0	
3	0	0	0	0	0	503	510	512	32	0	
4	0	0	0	0	0	505	512	512	31	0	
5	0	0	0	0	0	506	511	508	31	0	
6	0	0	0	0	1	504	513	510	31	0	
7	0	0	0	0	0	504	512	512	32	0	
8	0	0	0	0	0	505	511	512	31	0	
9	0	0	0	0	0	507	511	511	31	0	
10	0	0	0	0	0	507	512	507	31	0	
11	0	0	0	0	0	506	511	505	31	0	
12	0	0	0	0	0	506	513	508	31	0	
13	0	0	0	0	0	507	512	506	31	0	
14	0	0	0	0	2	504	513	507	31	0	
15	0	0	0	0	0	504	512	507	31	0	
0	0	0	0	0	0	506	511	507	31	0	
1	0	0	0	0	0	507	512	511	31	0	
2	0	0	0	0	0	505	509	511	31	0	
3	0	0	0	0	0	504	510	512	32	0	
4	0	0	0	0	0	504	511	510	31	0	
5	0	0	0	0	0	506	514	507	31	0	
6	0	0	0	0	2	507	512	511	31	0	
7	0	0	0	0	0	502	511	511	31	0	
8	0	0	0	0	0	504	511	512	32	0	
9	0	0	0	0	0	502	511	514	31	0	
10	0	0	0	0	0	502	512	516	31	0	
11	0	0	0	0	0	505	511	513	31	0	
12	0	0	0	0	0	506	511	512	31	0	
13	0	0	0	0	0	506	511	511	32	0	
14	0	0	0	0	3	505	513	508	31	0	
15	0	0	0	0	0	503	511	508	32	0	
0	0	0	0	0	0	507	511	507	32	0	
1	0	0	0	0	0	505	511	508	31	0	
2	0	0	0	0	0	506	511	505	31	0	
3	0	0	0	0	0	506	511	506	31	0	
4	0	0	0	0	0	503	511	508	31	0	
5	0	0	0	0	0	504	510	507	31	0	
6	0	0	0	0	2	504	513	508	31	0	
7	0	0	0	0	0	506	514	511	31	0	
8	0	0	0	0	0	507	515	512	31	0	
9	0	0	0	0	0	505	514	510	31	0	
10	0	0	0	0	0	504	513	511	31	0	
11	0	0	0	0	0	504	510	511	31	0	
12	0	0	0	0	0	505	512	510	31	0	
13	0	0	0	0	0	504	513	511	31	0	
14	0	0	0	0	2	504	510	504	31	0	
15	0	0	0	0	0	504	511	506	31	0	
0	0	0	0	0	0	504	512	506	31	0	
1	0	0	0	0	0	503	512	510	31	0	
2	0	0	0	0	0	504	512	508	31	0	
3	0	0	0	0	0	505	512	508	32	0	
4	0	0	0	0	0	507	514	509	31	0	
5	0	0	0	0	0	507	515	507	31	0	
6	0	0	0	0	2	508	514	508	31	0	
7	0	0	0	0	0	506	515	509	31	0	
8	0	0	0	0	0	506	515	510	31	0	
9	0	0	0	0	0	507	516	508	31	0	
10	0	0	0	0	0	508	513	509	31	0	
11	0	0	0	0	0	505	511	508	31	0	
12	0	0	0	0	0	507	512	510	32	0	
13	0	0	0	0	0	506	513	508	31	0	
14	0	0	0	0	2	505	513	508	31	0	
15	0	0	0	0	0	504	511	508	31	0	
0	0	0	0	0	0	504	509	513	32	0	
1	0	0	0	0	0	504	508	515	32	0	
2	0	0	0	0	0	503	509	513	31	0	
3	0	0	0	0	0	504	513	510	31	0	
4	0	0	0	0	0	505	513	510	31	0	
5	0	0	0	0	0	506	512	509	31	0	
6	0	0	0	0	2	505	512	510	32	0	
7	0	0	0	0	0	503	512	509	31	0	
8	0	0	0	0	0	504	511	508	31	0	
9	0	0	0	0	0	505	512	511	31	0	
10	0	0	0	0	0	505	511	510	31	0	
11	0	0	0	0	0	502	510	510	31	0	
12	0	0	0	0	0	504	510	509	32	0	
13	0	0	0	0	0	503	510	509	31	0	
14	0	0	0	0	2	504	512	507	31	0	
15	0	0	0	0	0	505	512	507	31	0	
0	0	0	0	0	0	508	513	504	31	0	
1	0	0	0	0	0	511	516	503	31	0	
2	0	0	0	0	0	509	515	505	31	0	
3	0	0	0	0	0	506	515	508	31	0	
4	0	0	0	0	0	507	513	509	31	0	
5	0	0	0	0	0	507	512	509	31	0	
6	0	0	0	0	2	509	515	511	31	0	
7	0	0	0	0	0	504	512	515	32	0	
8	0	0	0	0	0	503	508	515	31	0	
9	0	0	0	0	0	503	511	512	31	0	
10	0	0	0	0	0	505	510	511	31	0	
11	0	0	0	0	0	503	510	511	32	0	
12	0	0	0	0	0	504	509	513	32	0	
13	0	0	0	0	0	504	513	511	31	0	
14	0	0	0	0	2	504	510	509	31	0	
15	0	0	0	0	0	504	511	509	31	0	
0	0	0	0	0	0	505	509	507	31	0	
1	0	0	0	0	0	505	507	506	31	0	
2	0	0	0	0	0	505	510	505	31	0	
3	0	0	0	0	0	503	510	510	32	0	
4	0	0	0	0	0	505	509	509	31	0	
5	0	0	0	0	0	503	510	511	31	0	
6	0	0	0	0	1	503	508	510	31	0	
7	0	0	0	0	0	507	514	508	31	0	
8	0	0	0	0	0	506	517	508	31	0	
9	0	0	0	0	0	506	521	507	31	0	
10	0	0	0	0	0	507	519	508	31	0	
11	0	0	0	0	0	511	515	510	31	0	
12	0	0	0	0	0	507	514	510	31	0	
13	0	0	0	0	0	504	511	512	31	0	
14	0	0	0	0	1	502	508	514	32	0	
15	0	0	0	0	0	503	509	510	31	0	
0	0	0	0	0	0	504	512	508	31	0	
1	0	0	0	0	0	501	510	510	31	0	
2	0	0	0	0	0	503	512	508	31	0	
3	0	0	0	0	0	504	511	507	31	0	
4	0	0	0	0	0	504	508	508	32	0	
5	0	0	0	0	0	506	510	510	32	0	
6	0	0	0	0	1	504	510	510	32	0	
7	0	0	0	0	0	505	513	511	32	0	
8	0	0	0	0	0	507	512	509	32	0	
9	0	0	0	0	0	506	514	511	31	0	
10	0	0	0	0	0	505	512	510	31	0	
11	0	0	0	0	0	504	513	510	32	0	
12	0	0	0	0	0	504	515	510	32	0	
13	0	0	0	0	0	503	515	508	31	0	
14	0	0	0	0	2	506	513	506	31	0	
15	0	0	0	0	0	504	513	509	31	0	
0	0	0	0	0	0	504	513	509	31	0	
1	0	0	0	0	0	505	512	507	31	0	
2	0	0	0	0	0	505	512	508	31	0	
3	0	0	0	0	0	505	511	510	31	0	
4	0	0	0	0	0	504	508	508	31	0	
5	0	0	0	0	0	507	510	506	31	0	
6	0	0	0	0	2	508	510	507	31	0	
7	0	0	0	0	0	507	512	507	31	0	
8	0	0	0	0	0	510	514	507	31	0	
9	0	0	0	0	0	508	516	514	31	0	
10	0	0	0	0	0	507	513	512	31	0	
11	0	0	0	0	0	505	515	509	31	0	
12	0	0	0	0	0	506	510	509	31	0	
13	0	0	0	0	0	502	510	509	31	0	
14	0	0	0	0	2	505	512	511	31	0	
15	0	0	0	0	0	504	512	509	31	0	
0	0	0	0	0	0	504	511	508	31	0	
1	0	0	0	0	0	505	510	509	31	0	
2	0	0	0	0	0	506	510	506	32	0	
3	0	0	0	0	0	508	508	505	31	0	
4	0	0	0	0	0	507	511	509	31	0	
5	0	0	0	0	0	508	511	507	31	0	
6	0	0	0	0	2	504	511	507	31	0	
7	0	0	0	0	0	504	510	507	31	0	
8	0	0	0	0	0	504	511	510	31	0	
9	0	0	0	0	0	507	516	507	31	0	
10	0	0	0	0	0	506	515	510	31	0	
11	0	0	0	0	0	504	516	512	31	0	
12	0	0	0	0	0	504	513	511	31	0	
13	0	0	0	0	0	507	515	510	31	0	
14	0	0	0	0	2	504	512	508	31	0	
15	0	0	0	0	0	503	511	510	31	0	
0	0	0	0	0	0	506	514	509	31	0	
1	0	0	0	0	0	506	512	510	31	0	
2	0	0	0	0	0	506	515	513	31	0	
3	0	0	0	0	0	505	517	511	31	0	
4	0	0	0	0	0	504	513	510	31	0	
5	0	0	0	0	0	505	513	508	31	0	
6	0	0	0	0	2	508	512	508	31	0	
7	0	0	0	0	0	505	512	504	31	0	
8	0	0	0	0	0	505	510	506	31	0	
9	0	0	0	0	0	504	510	506	31	0	
10	0	0	0	0	0	504	510	507	31	0	
11	0	0	0	0	0	505	511	508	31	0	
12	0	0	0	0	0	504	511	515	31	0	
13	0	0	0	0	0	502	510	518	31	0	
14	0	0	0	0	2	500	510	519	32	0	
15	0	0	0	0	0	504	513	511	31	0	
0	0	0	0	0	0	506	512	510	31	0	
1	0	0	0	0	0	506	511	510	31	0	
2	0	0	0	0	0	506	510	506	31	0	
3	0	0	0	0	0	505	512	507	31	0	
4	0	0	0	0	0	508	513	508	31	0	
5	0	0	0	0	0	507	513	505	32	0	
6	0	0	0	0	2	507	512	508	31	0	
7	0	0	0	0	0	508	514	508	31	0	
8	0	0	0	0	0	505	514	506	31	0	
9	0	0	0	0	0	505	513	506	31	0	
10	0	0	0	0	0	507	511	508	31	0	
11	0	0	0	0	0	506	511	510	32	0	
12	0	0	0	0	0	503	511	511	32	0	
13	0	0	0	0	0	504	511	510	31	0	
14	0	0	0	0	2	505	511	511	31	0	
15	0	0	0	0	0	506	512	507	31	0	
0	0	0	0	0	0	507	510	510	31	0	
1	0	0	0	0	0	507	510	508	31	0	
2	0	0	0	0	0	505	512	512	31	0	
3	0	0	0	0	0	505	513	510	31	0	
4	0	0	0	0	0	503	514	511	31	0	
5	0	0	0	0	0	502	513	510	31	0	
6	0	0	0	0	3	502	514	511	31	0	
7	0	0	0	0	0	503	515	508	31	0	
8	0	0	0	0	0	504	510	510	31	0	
9	0	0	0	0	0	507	509	507	31	0	
10	0	0	0	0	0	508	513	507	31	0	
11	0	0	0	0	0	506	514	507	31	0	
12	0	0	0	0	0	506	516	508	31	0	
13	0	0	0	0	0	505	515	509	31	0	
14	0	0	0	0	2	506	515	508	31	0	
15	0	0	0	0	0	503	512	508	32	0	
0	0	0	0	0	0	507	513	508	31	0	
1	0	0	0	0	0	505	511	509	31	0	
2	0	0	0	0	0	503	513	510	31	0	
3	0	0	0	0	0	504	512	508	31	0	
4	0	0	0	0	0	506	512	509	31	0	
5	0	0	0	0	0	506	511	509	31	0	
6	0	0	0	0	1	504	511	509	31	0	
7	0	0	0	0	0	506	511	512	32	0	
8	0	0	0	0	0	505	511	511	31	0	
9	0	0	0	0	0	504	511	508	31	0	
10	0	0	0	0	0	506	511	508	31	0	
11	0	0	0	0	0	504	512	510	31	0	
12	0	0	0	0	0	504	508	512	32	0	
13	0	0	0	0	0	505	508	510	31	0	
14	0	0	0	0	1	504	511	512	31	0	
15	0	0	0	0	0	502	512	510	31	0	
0	0	0	0	0	0	503	512	509	31	0	
1	0	0	0	0	0	503	514	509	31	0	
2	0	0	0	0	0	504	515	511	31	0	
3	0	0	0	0	0	506	515	510	31	0	
4	0	0	0	0	0	508	513	506	31	0	
5	0	0	0	0	0	511	516	505	31	0	
6	0	0	0	0	2	508	517	505	31	0	
7	0	0	0	0	0	507	510	507	31	0	
8	0	0	0	0	0	507	510	511	31	0	
9	0	0	0	0	0	504	512	513	31	0	
10	0	0	0	0	0	505	513	508	31	0	
11	0	0	0	0	0	504	514	506	31	0	
12	0	0	0	0	0	506	512	509	31	0	
13	0	0	0	0	0	504	510	510	31	0	
14	0	0	0	0	3	504	511	506	31	0	
15	0	0	0	0	0	504	510	511	31	0	
0	0	0	0	0	0	505	507	512	31	0	
1	0	0	0	0	0	505	509	512	31	0	
2	0	0	0	0	0	507	516	512	32	0	
3	0	0	0	0	0	507	516	509	31	0	
4	0	0	0	0	0	508	521	508	31	0	
5	0	0	0	0	0	505	518	505	31	0	
6	0	0	0	0	3	503	515	507	31	0	
7	0	0	0	0	0	499	511	511	31	0	
8	0	0	0	0	0	500	512	511	31	0	
9	0	0	0	0	0	502	508	509	31	0	
10	0	0	0	0	0	503	510	511	32	0	
11	0	0	0	0	0	504	508	511	32	0	
12	0	0	0	0	0	505	513	508	31	0	
13	0	0	0	0	0	509	514	508	31	0	
14	0	0	0	0	2	513	515	511	31	0	
15	0	0	0	0	0	512	516	508	31	0	
0	0	0	0	0	0	510	513	508	31	0	
1	0	0	0	0	0	506	508	507	31	0	
2	0	0	0	0	0	507	503	511	31	0	
3	0	0	0	0	0	506	503	511	31	0	
4	0	0	0	0	0	504	504	509	31	0	
5	0	0	0	0	0	502	509	508	31	0	
6	0	0	0	0	2	497	512	512	32	0	
7	0	0	0	0	0	499	514	511	32	0	
8	0	0	0	0	0	499	514	511	32	0	
9	0	0	0	0	0	506	516	508	31	0	
10	0	0	0	0	0	509	514	507	31	0	
11	0	0	0	0	0	509	514	506	31	0	
12	0	0	0	0	0	510	515	507	31	0	
13	0	0	0	0	0	510	516	507	31	0	
14	0	0	0	0	3	510	515	507	31	0	
15	0	0	0	0	0	504	512	507	31	0	
0	0	0	0	0	0	499	510	511	31	0	
1	0	0	0	0	0	498	510	513	31	0	
2	0	0	0	0	0	499	512	514	31	0	
3	0	0	0	0	0	503	515	515	31	0	
4	0	0	0	0	0	504	513	512	31	0	
5	0	0	0	0	0	508	515	511	31	0	
6	0	0	0	0	2	509	511	508	31	0	
7	0	0	0	0	0	510	514	507	31	0	
8	0	0	0	0	0	508	514	505	31	0	
9	0	0	0	0	0	503	512	508	31	0	
10	0	0	0	0	0	499	509	512	32	0	
11	0	0	0	0	0	500	511	512	31	0	
12	0	0	0	0	0	506	514	510	31	0	
13	0	0	0	0	0	510	510	507	31	0	
14	0	0	0	0	2	514	510	504	31	0	
15	0	0	0	0	0	515	514	505	31	0	
0	0	0	0	0	0	512	514	506	31	0	
1	0	0	0	0	0	508	505	508	31	0	
2	0	0	0	0	0	500	503	510	31	0	
3	0	0	0	0	0	493	507	511	32	0	
4	0	0	0	0	0	494	511	513	32	0	
5	0	0	0	0	0	497	513	514	32	0	
6	0	0	0	0	2	504	519	511	31	0	
7	0	0	0	0	0	512	525	508	31	0	
8	0	0	0	0	0	514	522	504	31	0	
9	0	0	0	0	0	511	516	507	31	0	
10	0	0	0	0	0	503	521	508	31	0	
11	0	0	0	0	0	501	521	511	31	0	
12	0	0	0	0	0	503	508	512	31	0	
13	0	0	0	0	0	504	502	512	31	0	
14	0	0	0	0	2	511	502	512	31	0	
15	0	0	0	0	0	512	507	504	31	0	
0	0	0	0	0	0	511	506	504	31	0	
1	0	0	0	0	0	506	505	506	31	0	
2	0	0	0	0	0	499	509	509	31	0	
3	0	0	0	0	0	497	511	514	31	0	
4	0	0	0	0	0	496	515	513	31	0	
5	0	0	0	0	0	501	514	513	31	0	
6	0	0	0	0	3	508	512	507	31	0	
7	0	0	0	0	0	513	513	506	31	0	
8	0	0	0	0	0	510	516	509	32	0	
9	0	0	0	0	0	504	516	510	31	0	
10	0	0	0	0	0	504	513	507	31	0	
11	0	0	0	0	0	503	512	507	31	0	
12	0	0	0	0	0	508	514	506	31	0	
13	0	0	0	0	0	505	510	505	31	0	
14	0	0	0	0	1	502	509	508	32	0	
15	0	0	0	0	0	498	508	513	32	0	
0	0	0	0	0	0	497	502	514	32	0	
1	0	0	0	0	0	502	504	512	31	0	
2	0	0	0	0	0	509	504	513	31	0	
3	0	0	0	0	0	513	507	514	31	0	
4	0	0	0	0	0	516	519	509	31	0	
5	0	0	0	0	0	514	525	508	31	0	
6	0	0	0	0	1	508	529	508	31	0	
7	0	0	0	0	0	505	526	505	31	0	
8	0	0	0	0	0	500	521	505	31	0	
9	0	0	0	0	0	499	512	506	31	0	
10	0	0	0	0	0	501	505	507	31	0	
11	0	0	0	0	0	500	507	506	31	0	
12	0	0	0	0	0	497	508	512	31	0	
13	0	0	0	0	0	498	519	512	32	0	
14	0	0	0	0	1	503	525	510	31	0	
15	0	0	0	0	0	504	514	508	31	0	
0	0	0	0	0	0	505	509	505	31	0	
1	0	0	0	0	0	510	510	504	31	0	
2	0	0	0	0	0	513	508	507	31	0	
3	0	0	0	0	0	512	504	509	31	0	
4	0	0	0	0	0	510	503	512	31	0	
5	0	0	0	0	0	506	505	511	32	0	
6	0	0	0	0	2	500	508	511	32	0	
7	0	0	0	0	0	496	510	515	32	0	
8	0	0	0	0	0	497	508	516	32	0	
9	0	0	0	0	0	503	505	514	31	0	
10	0	0	0	0	0	508	507	510	31	0	
11	0	0	0	0	0	510	507	508	31	0	
12	0	0	0	0	0	507	508	509	31	0	
13	0	0	0	0	0	504	509	508	31	0	
14	0	0	0	0	2	499	512	510	31	0	
15	0	0	0	0	0	498	514	511	31	0	
0	0	0	0	0	0	503	516	511	32	0	
1	0	0	0	0	0	507	525	509	31	0	
2	0	0	0	0	0	507	529	509	31	0	
3	0	0	0	0	0	507	523	510	31	0	
4	0	0	0	0	0	504	513	509	31	0	
5	0	0	0	0	0	508	509	505	31	0	
6	0	0	0	0	2	513	511	506	31	0	
7	0	0	0	0	0	511	510	508	31	0	
8	0	0	0	0	0	509	509	507	31	0	
9	0	0	0	0	0	506	507	504	31	0	
10	0	0	0	0	0	502	505	506	31	0	
11	0	0	0	0	0	500	509	507	31	0	
12	0	0	0	0	0	499	511	509	31	0	
13	0	0	0	0	0	498	511	510	32	0	
14	0	0	0	0	2	501	512	510	32	0	
15	0	0	0	0	0	508	517	510	31	0	
0	0	0	0	0	0	512	519	508	31	0	
1	0	0	0	0	0	512	519	510	31	0	
2	0	0	0	0	0	509	512	511	31	0	
3	0	0	0	0	0	504	514	513	32	0	
4	0	0	0	0	0	506	512	512	32	0	
5	0	0	0	0	0	504	510	511	31	0	
6	0	0	0	0	2	504	505	509	31	0	
7	0	0	0	0	0	502	507	508	31	0	
8	0	0	0	0	0	505	508	508	31	0	
9	0	0	0	0	0	504	514	508	31	0	
10	0	0	0	0	0	502	519	509	31	0	
11	0	0	0	0	0	504	520	508	31	0	
12	0	0	0	0	0	503	518	508	31	0	
13	0	0	0	0	0	499	512	512	32	0	
14	0	0	0	0	2	500	507	512	32	0	
15	0	0	0	0	0	501	507	512	32	0	
0	0	0	0	0	0	503	510	514	32	0	
1	0	0	0	0	0	507	514	510	31	0	
2	0	0	0	0	0	509	512	508	31	0	
3	0	0	0	0	0	506	511	509	31	0	
4	0	0	0	0	0	511	516	507	31	0	
5	0	0	0	0	0	510	516	507	31	0	
6	0	0	0	0	3	507	513	509	31	0	
7	0	0	0	0	0	505	511	509	31	0	
8	0	0	0	0	0	501	512	511	31	0	
9	0	0	0	0	0	504	516	507	31	0	
10	0	0	0	0	0	506	514	508	31	0	
11	0	0	0	0	0	508	515	503	31	0	
12	0	0	0	0	0	510	515	504	31	0	
13	0	0	0	0	0	510	514	502	31	0	
14	0	0	0	0	2	508	512	503	31	0	
15	0	0	0	0	0	506	509	506	31	0	
0	0	0	0	0	0	500	504	510	31	0	
1	0	0	0	0	0	501	505	515	31	0	
2	0	0	0	0	0	496	504	523	32	0	
3	0	0	0	0	0	499	506	524	32	0	
4	0	0	0	0	0	504	512	514	32	0	
5	0	0	0	0	0	503	515	510	31	0	
6	0	0	0	0	3	504	513	510	31	0	
7	0	0	0	0	0	500	505	512	32	0	
8	0	0	0	0	0	498	504	512	32	0	
9	0	0	0	0	0	502	503	511	31	0	
10	0	0	0	0	0	509	506	509	31	0	
11	0	0	0	0	0	509	516	506	31	0	
12	0	0	0	0	0	513	528	506	31	0	
13	0	0	0	0	0	509	533	500	31	0	
14	0	0	0	0	2	509	524	505	31	0	
15	0	0	0	0	0	507	515	505	31	0	
0	0	0	0	0	0	504	508	509	32	0	
1	0	0	0	0	0	506	506	512	32	0	
2	0	0	0	0	0	503	502	511	31	0	
3	0	0	0	0	0	504	507	510	31	0	
4	0	0	0	0	0	504	519	511	31	0	
5	0	0	0	0	0	506	524	508	31	0	
6	0	0	0	0	2	507	521	508	31	0	
7	0	0	0	0	0	511	514	507	31	0	
8	0	0	0	0	0	508	511	508	31	0	
9	0	0	0	0	0	506	510	511	31	0	
10	0	0	0	0	0	504	505	511	31	0	
11	0	0	0	0	0	503	504	511	31	0	
12	0	0	0	0	0	502	509	509	31	0	
13	0	0	0	0	0	504	507	510	31	0	
14	0	0	0	0	1	503	510	508	31	0	
15	0	0	0	0	0	504	518	505	31	0	
0	0	0	0	0	0	505	520	505	31	0	
1	0	0	0	0	0	502	513	505	31	0	
2	0	0	0	0	0	503	511	509	31	0	
3	0	0	0	0	0	503	507	509	31	0	
4	0	0	0	0	0	506	508	509	31	0	
5	0	0	0	0	0	509	510	508	31	0	
6	0	0	0	0	1	510	513	509	31	0	
7	0	0	0	0	0	511	515	510	31	0	
8	0	0	0	0	0	510	514	512	31	0	
9	0	0	0	0	0	509	511	513	32	0	
10	0	0	0	0	0	503	511	515	32	0	
11	0	0	0	0	0	502	513	514	31	0	
12	0	0	0	0	0	499	510	512	31	0	
13	0	0	0	0	0	499	508	509	31	0	
14	0	0	0	0	1	501	507	511	31	0	
15	0	0	0	0	0	504	512	510	31	0	
0	0	0	0	0	0	506	519	504	31	0	
1	0	0	0	0	0	507	518	503	31	0	
2	0	0	0	0	0	507	517	504	31	0	
3	0	0	0	0	0	507	519	505	31	0	
4	0	0	0	0	0	501	512	511	31	0	
5	0	0	0	0	0	503	505	511	31	0	
6	0	0	0	0	2	507	505	507	31	0	
7	0	0	0	0	0	510	504	510	31	0	
8	0	0	0	0	0	510	507	512	31	0	
9	0	0	0	0	0	507	513	509	31	0	
10	0	0	0	0	0	505	511	510	31	0	
11	0	0	0	0	0	505	511	510	31	0	
12	0	0	0	0	0	505	514	510	31	0	
13	0	0	0	0	0	504	515	512	32	0	
14	0	0	0	0	2	506	514	513	32	0	
15	0	0	0	0	0	505	512	511	32	0	
0	0	0	0	0	0	503	513	509	31	0	
1	0	0	0	0	0	502	511	510	31	0	
2	0	0	0	0	0	504	513	508	31	0	
3	0	0	0	0	0	508	514	504	31	0	
4	0	0	0	0	0	507	515	506	31	0	
5	0	0	0	0	0	503	513	511	31	0	
6	0	0	0	0	3	502	511	511	32	0	
7	0	0	0	0	0	508	511	510	32	0	
8	0	0	0	0	0	509	513	510	31	0	
9	0	0	0	0	0	511	515	507	31	0	
10	0	0	0	0	0	511	513	508	31	0	
11	0	0	0	0	0	508	515	509	31	0	
12	0	0	0	0	0	505	515	508	31	0	
13	0	0	0	0	0	503	511	508	31	0	
14	0	0	0	0	3	500	508	510	31	0	
15	0	0	0	0	0	504	513	505	31	0	
0	0	0	0	0	0	504	512	503	31	0	
1	0	0	0	0	0	504	513	507	31	0	
2	0	0	0	0	0	507	518	507	31	0	
3	0	0	0	0	0	501	510	514	31	0	
4	0	0	0	0	0	495	503	522	32	0	
5	0	0	0	0	0	491	496	524	32	0	
6	0	0	0	0	2	499	504	514	32	0	
7	0	0	0	0	0	504	512	511	31	0	
8	0	0	0	0	0	507	515	509	31	0	
9	0	0	0	0	0	508	515	507	31	0	
10	0	0	0	0	0	508	516	506	31	0	
11	0	0	0	0	0	508	513	508	31	0	
12	0	0	0	0	0	507	513	508	31	0	
13	0	0	0	0	0	505	513	508	31	0	
14	0	0	0	0	2	508	511	509	31	0	
15	0	0	0	0	0	504	511	507	31	0	
0	0	0	0	0	0	503	510	511	31	0	
1	0	0	0	0	0	503	508	508	31	0	
2	0	0	0	0	0	508	510	506	31	0	
3	0	0	0	0	0	507	508	507	31	0	
4	0	0	0	0	0	508	512	506	31	0	
5	0	0	0	0	0	507	520	505	31	0	
6	0	0	0	0	2	506	526	508	31	0	
7	0	0	0	0	0	506	519	508	31	0	
8	0	0	0	0	0	504	511	510	31	0	
9	0	0	0	0	0	503	511	510	31	0	
10	0	0	0	0	0	504	508	512	31	0	
11	0	0	0	0	0	504	507	510	31	0	
12	0	0	0	0	0	507	506	510	31	0	
13	0	0	0	0	0	507	512	508	31	0	
14	0	0	0	0	2	504	511	511	31	0	
15	0	0	0	0	0	500	508	511	32	0	
0	0	0	0	0	0	502	510	510	32	0	
1	0	0	0	0	0	502	507	508	32	0	
2	0	0	0	0	0	505	511	509	31	0	
3	0	0	0	0	0	511	514	507	31	0	
4	0	0	0	0	0	512	513	508	31	0	
5	0	0	0	0	0	511	514	507	31	0	
6	0	0	0	0	2	510	516	506	31	0	
7	0	0	0	0	0	507	515	507	31	0	
8	0	0	0	0	0	505	512	505	31	0	
9	0	0	0	0	0	504	515	505	31	0	
10	0	0	0	0	0	503	514	507	31	0	
11	0	0	0	0	0	499	511	507	31	0	
12	0	0	0	0	0	503	514	509	31	0	
13	0	0	0	0	0	501	514	512	32	0	
14	0	0	0	0	2	502	510	514	32	0	
15	0	0	0	0	0	505	512	513	32	0	
0	0	0	0	0	0	508	514	506	31	0	
1	0	0	0	0	0	507	514	507	31	0	
2	0	0	0	0	0	505	516	512	31	0	
3	0	0	0	0	0	504	512	513	31	0	
4	0	0	0	0	0	503	508	515	32	0	
5	0	0	0	0	0	502	508	514	32	0	
6	0	0	0	0	2	501	507	512	32	0	
7	0	0	0	0	0	504	507	513	32	0	
8	0	0	0	0	0	504	504	512	31	0	
9	0	0	0	0	0	505	506	510	31	0	
10	0	0	0	0	0	507	511	505	31	0	
11	0	0	0	0	0	508	514	507	31	0	
12	0	0	0	0	0	508	515	507	31	0	
13	0	0	0	0	0	507	513	507	31	0	
14	0	0	0	0	1	508	515	507	31	0	
15	0	0	0	0	0	506	514	508	31	0	
0	0	0	0	0	0	503	514	508	31	0	
1	0	0	0	0	0	501	512	509	31	0	
2	0	0	0	0	0	504	511	510	31	0	
3	0	0	0	0	0	504	509	511	31	0	
4	0	0	0	0	0	504	505	509	31	0	
5	0	0	0	0	0	504	511	507	31	0	
6	0	0	0	0	1	505	521	509	31	0	
7	0	0	0	0	0	506	526	509	31	0	
8	0	0	0	0	0	507	520	505	32	0	
9	0	0	0	0	0	508	512	503	31	0	
10	0	0	0	0	0	507	511	508	31	0	
11	0	0	0	0	0	504	507	510	31	0	
12	0	0	0	0	0	504	506	511	31	0	
13	0	0	0	0	0	504	506	513	32	0	
14	0	0	0	0	2	503	509	515	31	0	
15	0	0	0	0	0	504	511	515	31	0	
0	0	0	0	0	0	503	511	514	32	0	
1	0	0	0	0	0	504	511	511	31	0	
2	0	0	0	0	0	505	513	508	31	0	
3	0	0	0	0	0	504	511	508	31	0	
4	0	0	0	0	0	509	512	510	31	0	
5	0	0	0	0	0	506	513	507	31	0	
6	0	0	0	0	2	505	514	505	31	0	
7	0	0	0	0	0	507	511	505	31	0	
8	0	0	0	0	0	504	510	507	31	0	
9	0	0	0	0	0	505	508	508	31	0	
10	0	0	0	0	0	505	512	510	32	0	
11	0	0	0	0	0	506	512	510	32	0	
12	0	0	0	0	0	506	513	511	31	0	
13	0	0	0	0	0	511	516	508	31	0	
14	0	0	0	0	2	508	516	508	31	0	
15	0	0	0	0	0	507	514	510	31	0	
0	0	0	0	0	0	502	511	508	31	0	
1	0	0	0	0	0	500	508	509	31	0	
2	0	0	0	0	0	503	508	509	31	0	
3	0	0	0	0	0	501	508	511	31	0	
4	0	0	0	0	0	503	510	508	31	0	
5	0	0	0	0	0	504	514	508	31	0	
6	0	0	0	0	2	505	512	510	31	0	
7	0	0	0	0	0	507	515	512	32	0	
8	0	0	0	0	0	507	517	509	32	0	
9	0	0	0	0	0	505	516	506	31	0	
10	0	0	0	0	0	505	518	509	31	0	
11	0	0	0	0	0	507	513	512	31	0	
12	0	0	0	0	0	505	510	511	31	0	
13	0	0	0	0	0	504	507	510	31	0	
14	0	0	0	0	2	505	505	511	31	0	
15	0	0	0	0	0	505	511	510	31	0	
0	0	0	0	0	0	507	513	508	31	0	
1	0	0	0	0	0	506	512	508	31	0	
2	0	0	0	0	0	506	513	507	31	0	
3	0	0	0	0	0	506	511	507	31	0	
4	0	0	0	0	0	504	508	506	31	0	
5	0	0	0	0	0	501	509	509	31	0	
6	0	0	0	0	2	502	511	508	31	0	
7	0	0	0	0	0	504	515	508	32	0	
8	0	0	0	0	0	505	515	510	31	0	
9	0	0	0	0	0	506	513	511	32	0	
10	0	0	0	0	0	506	512	509	31	0	
11	0	0	0	0	0	504	513	512	31	0	
12	0	0	0	0	0	504	510	510	31	0	
13	0	0	0	0	0	505	512	510	31	0	
14	0	0	0	0	2	505	515	510	32	0	
15	0	0	0	0	0	507	515	511	31	0	
0	0	0	0	0	0	509	515	508	31	0	
1	0	0	0	0	0	509	515	505	31	0	
2	0	0	0	0	0	508	512	507	31	0	
3	0	0	0	0	0	508	510	508	31	0	
4	0	0	0	0	0	506	506	507	31	0	
5	0	0	0	0	0	505	508	507	31	0	
6	0	0	0	0	2	504	512	511	31	0	
7	0	0	0	0	0	504	511	511	31	0	
8	0	0	0	0	0	501	512	511	31	0	
9	0	0	0	0	0	502	508	511	32	0	
10	0	0	0	0	0	504	510	508	31	0	
11	0	0	0	0	0	503	513	511	31	0	
12	0	0	0	0	0	502	519	511	31	0	
13	0	0	0	0	0	506	516	512	32	0	
14	0	0	0	0	2	503	516	510	31	0	
15	0	0	0	0	0	504	514	508	31	0	
0	0	0	0	0	0	508	511	510	31	0	
1	0	0	0	0	0	505	509	508	31	0	
2	0	0	0	0	0	504	512	510	31	0	
3	0	0	0	0	0	504	510	512	31	0	
4	0	0	0	0	0	506	511	513	31	0	
5	0	0	0	0	0	506	513	512	32	0	
6	0	0	0	0	2	505	513	510	32	0	
7	0	0	0	0	0	510	512	506	31	0	
8	0	0	0	0	0	512	512	505	31	0	
9	0	0	0	0	0	514	512	505	31	0	
10	0	0	0	0	0	513	513	507	31	0	
11	0	0	0	0	0	510	514	505	31	0	
12	0	0	0	0	0	506	516	506	31	0	
13	0	0	0	0	0	500	514	509	31	0	
14	0	0	0	0	2	502	512	510	31	0	
15	0	0	0	0	0	500	510	510	31	0	
0	0	0	0	0	0	501	508	513	31	0	
1	0	0	0	0	0	501	507	514	32	0	
2	0	0	0	0	0	500	506	513	32	0	
3	0	0	0	0	0	502	505	511	32	0	
4	0	0	0	0	0	502	511	512	32	0	
5	0	0	0	0	0	507	515	509	31	0	
6	0	0	0	0	1	508	519	508	31	0	
7	0	0	0	0	0	507	521	511	31	0	
8	0	0	0	0	0	505	517	508	31	0	
9	0	0	0	0	0	507	514	508	31	0	
10	0	0	0	0	0	505	511	508	31	0	
11	0	0	0	0	0	505	511	506	31	0	
12	0	0	0	0	0	507	511	505	31	0	
13	0	0	0	0	0	505	509	505	31	0	
14	0	0	0	0	1	505	509	503	31	0	
15	0	0	0	0	0	505	509	508	31	0	
0	0	0	0	0	0	504	508	511	32	0	
1	0	0	0	0	0	505	507	509	32	0	
2	0	0	0	0	0	502	508	513	31	0	
3	0	0	0	0	0	504	508	512	32	0	
4	0	0	0	0	0	503	514	514	31	0	
5	0	0	0	0	0	504	513	513	31	0	
6	0	0	0	0	1	501	513	510	31	0	
7	0	0	0	0	0	504	515	506	31	0	
8	0	0	0	0	0	508	514	505	31	0	
9	0	0	0	0	0	507	512	505	31	0	
10	0	0	0	0	0	507	513	504	31	0	
11	0	0	0	0	0	504	513	504	31	0	
12	0	0	0	0	0	508	513	506	31	0	
13	0	0	0	0	0	508	516	506	31	0	
14	0	0	0	0	3	510	513	505	31	0	
15	0	0	0	0	0	507	512	509	32	0	
0	0	0	0	0	0	505	510	513	32	0	
1	0	0	0	0	0	501	512	514	32	0	
2	0	0	0	0	0	507	514	512	31	0	
3	0	0	0	0	0	504	514	511	31	0	
4	0	0	0	0	0	505	511	512	31	0	
5	0	0	0	0	0	505	511	511	31	0	
6	0	0	0	0	2	505	510	509	31	0	
7	0	0	0	0	0	505	510	512	32	0	
8	0	0	0	0	0	505	510	511	31	0	
9	0	0	0	0	0	505	513	510	31	0	
10	0	0	0	0	0	506	516	509	31	0	
11	0	0	0	0	0	505	515	507	31	0	
12	0	0	0	0	0	505	512	506	31	0	
13	0	0	0	0	0	506	507	508	31	0	
14	0	0	0	0	2	505	509	511	31	0	
15	0	0	0	0	0	500	513	512	31	0	
0	0	0	0	0	0	500	515	513	32	0	
1	0	0	0	0	0	503	518	512	31	0	
2	0	0	0	0	0	506	517	508	31	0	
3	0	0	0	0	0	507	512	508	31	0	
4	0	0	0	0	0	508	510	510	31	0	
5	0	0	0	0	0	508	506	508	31	0	
6	0	0	0	0	2	507	508	512	32	0	
7	0	0	0	0	0	503	508	511	32	0	
8	0	0	0	0	0	504	507	510	31	0	
9	0	0	0	0	0	509	510	508	31	0	
10	0	0	0	0	0	507	517	508	31	0	
11	0	0	0	0	0	507	523	508	31	0	
12	0	0	0	0	0	504	518	512	32	0	
13	0	0	0	0	0	499	514	510	32	0	
14	0	0	0	0	2	500	508	509	32	0	
15	0	0	0	0	0	504	509	510	31	0	
0	0	0	0	0	0	504	511	511	31	0	
1	0	0	0	0	0	506	510	510	31	0	
2	0	0	0	0	0	507	507	511	31	0	
3	0	0	0	0	0	507	507	511	31	0	
4	0	0	0	0	0	507	514	511	31	0	
5	0	0	0	0	0	511	513	507	31	0	
6	0	0	0	0	2	510	515	506	31	0	
7	0	0	0	0	0	505	518	507	31	0	
8	0	0	0	0	0	505	518	509	31	0	
9	0	0	0	0	0	504	516	509	31	0	
10	0	0	0	0	0	504	511	510	31	0	
11	0	0	0	0	0	504	510	510	31	0	
12	0	0	0	0	0	503	507	507	31	0	
13	0	0	0	0	0	505	505	511	32	0	
14	0	0	0	0	3	501	505	510	31	0	
15	0	0	0	0	0	503	502	511	31	0	
0	0	0	0	0	0	502	507	512	31	0	
1	0	0	0	0	0	503	517	508	31	0	
2	0	0	0	0	0	505	528	509	31	0	
3	0	0	0	0	0	506	526	505	31	0	
4	0	0	0	0	0	506	521	507	31	0	
5	0	0	0	0	0	508	509	507	31	0	
6	0	0	0	0	2	509	510	507	31	0	
7	0	0	0	0	0	506	511	511	31	0	
8	0	0	0	0	0	503	510	510	31	0	
9	0	0	0	0	0	507	507	509	31	0	
10	0	0	0	0	0	513	503	506	32	0	
11	0	0	0	0	0	512	506	504	31	0	
12	0	0	0	0	0	510	508	508	31	0	
13	0	0	0	0	0	502	512	511	31	0	
14	0	0	0	0	2	499	523	510	31	0	
15	0	0	0	0	0	500	532	511	31	0	
0	0	0	0	0	0	500	526	511	31	0	
1	0	0	0	0	0	503	512	508	31	0	
2	0	0	0	0	0	503	505	507	31	0	
3	0	0	0	0	0	507	502	508	31	0	
4	0	0	0	0	0	507	506	511	32	0	
5	0	0	0	0	0	508	507	512	32	0	
6	0	0	0	0	2	505	509	515	32	0	
7	0	0	0	0	0	505	513	514	32	0	
8	0	0	0	0	0	504	517	512	32	0	
9	0	0	0	0	0	505	519	508	31	0	
10	0	0	0	0	0	506	516	508	31	0	
11	0	0	0	0	0	506	512	508	31	0	
12	0	0	0	0	0	507	511	508	31	0	
13	0	0	0	0	0	505	508	505	31	0	
14	0	0	0	0	2	505	506	507	31	0	
15	0	0	0	0	0	506	506	508	31	0	
0	0	0	0	0	0	503	508	508	31	0	
1	0	0	0	0	0	500	507	508	31	0	
2	0	0	0	0	0	500	514	511	32	0	
3	0	0	0	0	0	508	518	513	32	0	
4	0	0	0	0	0	509	516	512	31	0	
5	0	0	0	0	0	511	515	511	31	0	
6	0	0	0	0	1	511	516	510	31	0	
7	0	0	0	0	0	506	515	512	31	0	
8	0	0	0	0	0	504	512	506	31	0	
9	0	0	0	0	0	503	509	507	31	0	
10	0	0	0	0	0	501	512	507	31	0	
11	0	0	0	0	0	500	509	507	31	0	
12	0	0	0	0	0	499	510	510	31	0	
13	0	0	0	0	0	501	511	511	31	0	
14	0	0	0	0	1	502	512	512	32	0	
15	0	0	0	0	0	499	515	512	32	0	
0	0	0	0	0	0	502	515	511	32	0	
1	0	0	0	0	0	505	511	507	31	0	
2	0	0	0	0	0	508	511	507	31	0	
3	0	0	0	0	0	507	510	509	31	0	
4	0	0	0	0	0	509	512	511	31	0	
5	0	0	0	0	0	511	514	512	31	0	
6	0	0	0	0	1	512	512	509	31	0	
7	0	0	0	0	0	510	515	508	31	0	
8	0	0	0	0	0	506	516	508	31	0	
9	0	0	0	0	0	506	511	507	31	0	
10	0	0	0	0	0	505	506	506	31	0	
11	0	0	0	0	0	504	508	511	31	0	
12	0	0	0	0	0	504	508	507	31	0	
13	0	0	0	0	0	504	509	508	31	0	
14	0	0	0	0	2	501	511	511	31	0	
15	0	0	0	0	0	502	509	509	31	0	
0	0	0	0	0	0	502	515	507	31	0	
1	0	0	0	0	0	502	513	508	31	0	
2	0	0	0	0	0	501	513	507	31	0	
3	0	0	0	0	0	499	510	509	31	0	
4	0	0	0	0	0	500	514	511	31	0	
5	0	0	0	0	0	504	512	506	31	0	
6	0	0	0	0	2	508	511	510	31	0	
7	0	0	0	0	0	515	512	511	31	0	
8	0	0	0	0	0	511	516	510	31	0	
9	0	0	0	0	0	510	519	510	31	0	
10	0	0	0	0	0	508	517	508	31	0	
11	0	0	0	0	0	504	508	509	31	0	
12	0	0	0	0	0	502	505	510	32	0	
13	0	0	0	0	0	503	509	508	31	0	
14	0	0	0	0	2	504	508	510	31	0	
15	0	0	0	0	0	504	516	510	31	0	
0	0	0	0	0	0	503	521	507	31	0	
1	0	0	0	0	0	503	516	507	31	0	
2	0	0	0	0	0	505	510	510	32	0	
3	0	0	0	0	0	503	511	509	32	0	
4	0	0	0	0	0	503	512	511	31	0	
5	0	0	0	0	0	504	518	508	31	0	
6	0	0	0	0	2	507	513	509	31	0	
7	0	0	0	0	0	506	514	510	31	0	
8	0	0	0	0	0	504	512	511	31	0	
9	0	0	0	0	0	503	506	514	31	0	
10	0	0	0	0	0	499	502	515	31	0	
11	0	0	0	0	0	501	504	513	32	0	
12	0	0	0	0	0	505	509	511	31	0	
13	0	0	0	0	0	510	515	507	31	0	
14	0	0	0	0	2	514	524	504	31	0	
15	0	0	0	0	0	515	519	501	31	0	
0	0	0	0	0	0	515	512	502	31	0	
1	0	0	0	0	0	511	507	505	31	0	
2	0	0	0	0	0	502	504	508	31	0	
3	0	0	0	0	0	500	507	509	31	0	
4	0	0	0	0	0	500	509	513	31	0	
5	0	0	0	0	0	501	512	511	31	0	
6	0	0	0	0	2	503	518	511	31	0	
7	0	0	0	0	0	504	520	511	31	0	
8	0	0	0	0	0	502	516	509	31	0	
9	0	0	0	0	0	502	510	509	31	0	
10	0	0	0	0	0	498	503	510	31	0	
11	0	0	0	0	0	498	504	512	32	0	
12	0	0	0	0	0	500	506	513	32	0	
13	0	0	0	0	0	501	508	512	31	0	
14	0	0	0	0	2	506	519	511	31	0	
15	0	0	0	0	0	511	525	508	31	0	
0	0	0	0	0	0	512	519	505	31	0	
1	0	0	0	0	0	513	512	508	31	0	
2	0	0	0	0	0	512	508	508	31	0	
3	0	0	0	0	0	509	511	503	31	0	
4	0	0	0	0	0	505	512	507	31	0	
5	0	0	0	0	0	503	509	507	31	0	
6	0	0	0	0	2	504	512	510	31	0	
7	0	0	0	0	0	506	515	511	31	0	
8	0	0	0	0	0	507	511	509	31	0	
9	0	0	0	0	0	508	512	511	32	0	
10	0	0	0	0	0	505	516	512	31	0	
11	0	0	0	0	0	504	513	512	31	0	
12	0	0	0	0	0	500	509	512	31	0	
13	0	0	0	0	0	501	507	511	31	0	
14	0	0	0	0	2	502	505	510	31	0	
15	0	0	0	0	0	503	508	508	31	0	
0	0	0	0	0	0	504	510	509	31	0	
1	0	0	0	0	0	505	518	508	31	0	
2	0	0	0	0	0	506	517	508	31	0	
3	0	0	0	0	0	508	512	508	31	0	
4	0	0	0	0	0	508	512	506	31	0	
5	0	0	0	0	0	508	514	509	31	0	
6	0	0	0	0	2	506	511	511	32	0	
7	0	0	0	0	0	503	516	511	31	0	
8	0	0	0	0	0	502	512	512	31	0	
9	0	0	0	0	0	502	512	512	31	0	
10	0	0	0	0	0	503	511	511	31	0	
11	0	0	0	0	0	503	511	511	31	0	
12	0	0	0	0	0	503	509	510	31	0	
13	0	0	0	0	0	503	508	511	31	0	
14	0	0	0	0	2	504	512	511	31	0	
15	0	0	0	0	0	505	512	509	31	0	
0	0	0	0	0	0	505	511	508	32	0	
1	0	0	0	0	0	504	515	509	31	0	
2	0	0	0	0	0	504	515	508	31	0	
3	0	0	0	0	0	504	516	508	31	0	
4	0	0	0	0	0	502	525	507	31	0	
5	0	0	0	0	0	500	524	505	31	0	
6	0	0	0	0	1	505	512	508	31	0	
7	0	0	0	0	0	508	508	508	31	0	
8	0	0	0	0	0	512	504	510	31	0	
9	0	0	0	0	0	516	504	508	31	0	
10	0	0	0	0	0	517	505	510	31	0	
11	0	0	0	0	0	513	507	507	31	0	
12	0	0	0	0	0	504	510	511	31	0	
13	0	0	0	0	0	503	509	511	31	0	
14	0	0	0	0	1	500	500	512	32	0	
15	0	0	0	0	0	499	504	510	32	0	
0	0	0	0	0	0	505	514	507	31	0	
1	0	0	0	0	0	507	535	504	31	0	
2	0	0	0	0	0	504	545	508	31	0	
3	0	0	0	0	0	501	524	504	31	0	
4	0	0	0	0	0	500	510	506	31	0	
5	0	0	0	0	0	504	508	507	31	0	
6	0	0	0	0	2	502	507	510	32	0	
7	0	0	0	0	0	503	510	511	32	0	
8	0	0	0	0	0	504	511	511	31	0	
9	0	0	0	0	0	506	508	513	31	0	
10	0	0	0	0	0	508	510	513	31	0	
11	0	0	0	0	0	509	512	508	31	0	
12	0	0	0	0	0	509	510	511	31	0	
13	0	0	0	0	0	506	507	511	31	0	
14	0	0	0	0	2	505	506	512	32	0	
15	0	0	0	0	0	505	502	512	31	0	
0	0	0	0	0	0	504	510	510	32	0	
1	0	0	0	0	0	503	519	508	31	0	
2	0	0	0	0	0	504	527	505	31	0	
3	0	0	0	0	0	504	523	507	31	0	
4	0	0	0	0	0	500	515	508	31	0	
5	0	0	0	0	0	502	507	508	31	0	
6	0	0	0	0	2	503	504	507	31	0	
7	0	0	0	0	0	503	507	510	31	0	
8	0	0	0	0	0	504	503	511	32	0	
9	0	0	0	0	0	506	499	512	31	0	
10	0	0	0	0	0	506	501	511	32	0	
11	0	0	0	0	0	505	514	512	32	0	
12	0	0	0	0	0	505	524	512	31	0	
13	0	0	0	0	0	503	524	511	31	0	
14	0	0	0	0	2	508	523	510	31	0	
15	0	0	0	0	0	514	517	507	31	0	
0	0	0	0	0	0	515	516	505	31	0	
1	0	0	0	0	0	513	518	505	31	0	
2	0	0	0	0	0	507	515	505	31	0	
3	0	0	0	0	0	502	510	508	31	0	
4	0	0	0	0	0	498	505	511	31	0	
5	0	0	0	0	0	496	500	512	31	0	
6	0	0	0	0	2	497	497	512	31	0	
7	0	0	0	0	0	501	502	513	31	0	
8	0	0	0	0	0	507	506	510	31	0	
9	0	0	0	0	0	510	519	509	31	0	
10	0	0	0	0	0	511	519	508	31	0	
11	0	0	0	0	0	508	516	512	31	0	
12	0	0	0	0	0	505	526	512	31	0	
13	0	0	0	0	0	499	527	512	31	0	
14	0	0	0	0	2	504	511	506	31	0	
15	0	0	0	0	0	505	504	505	31	0	
0	0	0	0	0	0	507	503	505	31	0	
1	0	0	0	0	0	510	509	505	31	0	
2	0	0	0	0	0	508	508	509	31	0	
3	0	0	0	0	0	508	511	507	31	0	
4	0	0	0	0	0	507	507	509	31	0	
5	0	0	0	0	0	506	509	510	31	0	
6	0	0	0	0	2	506	515	508	31	0	
7	0	0	0	0	0	506	519	508	31	0	
8	0	0	0	0	0	504	519	509	31	0	
9	0	0	0	0	0	502	514	508	31	0	
10	0	0	0	0	0	500	508	508	31	0	
11	0	0	0	0	0	503	506	509	31	0	
12	0	0	0	0	0	506	510	509	31	0	
13	0	0	0	0	0	511	515	509	31	0	
14	0	0	0	0	2	508	522	510	31	0	
15	0	0	0	0	0	504	521	510	31	0	
0	0	0	0	0	0	503	519	510	31	0	
1	0	0	0	0	0	499	514	510	31	0	
2	0	0	0	0	0	501	505	508	31	0	
3	0	0	0	0	0	502	500	506	31	0	
4	0	0	0	0	0	504	502	507	31	0	
5	0	0	0	0	0	503	501	510	31	0	
6	0	0	0	0	2	499	507	508	32	0	
7	0	0	0	0	0	501	515	510	31	0	
8	0	0	0	0	0	505	518	512	31	0	
9	0	0	0	0	0	505	514	508	31	0	
10	0	0	0	0	0	508	513	508	31	0	
11	0	0	0	0	0	508	511	508	31	0	
12	0	0	0	0	0	505	512	510	31	0	
13	0	0	0	0	0	504	509	513	32	0	
14	0	0	0	0	2	502	506	515	32	0	
15	0	0	0	0	0	501	512	514	31	0	
0	0	0	0	0	0	505	519	511	31	0	
1	0	0	0	0	0	508	515	511	31	0	
2	0	0	0	0	0	510	513	508	31	0	
3	0	0	0	0	0	513	513	505	31	0	
4	0	0	0	0	0	510	512	505	31	0	
5	0	0	0	0	0	505	507	506	31	0	
6	0	0	0	0	2	506	510	507	31	0	
7	0	0	0	0	0	507	514	510	31	0	
8	0	0	0	0	0	507	514	509	31	0	
9	0	0	0	0	0	504	517	511	31	0	
10	0	0	0	0	0	502	515	511	31	0	
11	0	0	0	0	0	503	514	511	31	0	
12	0	0	0	0	0	502	513	508	31	0	
13	0	0	0	0	0	506	509	508	31	0	
14	0	0	0	0	1	506	509	509	31	0	
15	0	0	0	0	0	504	505	510	32	0	
0	0	0	0	0	0	504	507	512	31	0	
1	0	0	0	0	0	499	511	511	31	0	
2	0	0	0	0	0	501	516	510	31	0	
3	0	0	0	0	0	503	516	508	31	0	
4	0	0	0	0	0	504	519	506	31	0	
5	0	0	0	0	0	507	514	507	31	0	
6	0	0	0	0	1	508	510	508	31	0	
7	0	0	0	0	0	510	506	508	31	0	
8	0	0	0	0	0	507	505	511	32	0	
9	0	0	0	0	0	502	507	508	31	0	
10	0	0	0	0	0	497	513	511	31	0	
11	0	0	0	0	0	500	534	510	31	0	
12	0	0	0	0	0	507	537	505	31	0	
13	0	0	0	0	0	514	518	508	31	0	
14	0	0	0	0	1	516	506	507	31	0	
15	0	0	0	0	0	513	504	508	31	0	
0	0	0	0	0	0	506	504	511	31	0	
1	0	0	0	0	0	504	500	508	31	0	
2	0	0	0	0	0	497	499	513	31	0	
3	0	0	0	0	0	495	501	513	32	0	
4	0	0	0	0	0	497	508	512	31	0	
5	0	0	0	0	0	501	511	512	31	0	
6	0	0	0	0	2	503	510	508	31	0	
7	0	0	0	0	0	506	518	509	31	0	
8	0	0	0	0	0	509	517	508	31	0	
9	0	0	0	0	0	513	512	508	31	0	
10	0	0	0	0	0	511	515	512	31	0	
11	0	0	0	0	0	508	519	509	31	0	
12	0	0	0	0	0	504	516	511	31	0	
13	0	0	0	0	0	505	513	508	31	0	
14	0	0	0	0	2	505	512	510	31	0	
15	0	0	0	0	0	504	510	508	31	0	
0	0	0	0	0	0	504	510	506	31	0	
1	0	0	0	0	0	506	512	508	31	0	
2	0	0	0	0	0	503	511	508	31	0	
3	0	0	0	0	0	501	510	510	31	0	
4	0	0	0	0	0	503	509	511	32	0	
5	0	0	0	0	0	505	512	508	31	0	
6	0	0	0	0	2	505	515	510	31	0	
7	0	0	0	0	0	503	511	512	31	0	
8	0	0	0	0	0	504	515	511	31	0	
9	0	0	0	0	0	506	517	508	31	0	
10	0	0	0	0	0	511	515	506	31	0	
11	0	0	0	0	0	515	526	507	31	0	
12	0	0	0	0	0	511	522	505	31	0	
13	0	0	0	0	0	511	515	508	31	0	
14	0	0	0	0	2	507	506	509	31	0	
15	0	0	0	0	0	499	500	510	31	0	
0	0	0	0	0	0	499	499	512	31	0	
1	0	0	0	0	0	501	508	509	32	0	
2	0	0	0	0	0	504	514	510	31	0	
3	0	0	0	0	0	504	512	514	31	0	
4	0	0	0	0	0	505	514	515	31	0	
5	0	0	0	0	0	505	513	509	31	0	
6	0	0	0	0	2	504	513	507	31	0	
7	0	0	0	0	0	508	510	504	31	0	
8	0	0	0	0	0	505	509	505	31	0	
9	0	0	0	0	0	505	510	507	31	0	
10	0	0	0	0	0	507	511	508	31	0	
11	0	0	0	0	0	505	510	509	31	0	
12	0	0	0	0	0	507	509	510	32	0	
13	0	0	0	0	0	504	507	511	31	0	
14	0	0	0	0	3	501	509	510	31	0	
15	0	0	0	0	0	499	517	510	31	0	
0	0	0	0	0	0	502	523	511	31	0	
1	0	0	0	0	0	502	523	510	31	0	
2	0	0	0	0	0	506	516	512	32	0	
3	0	0	0	0	0	505	512	514	31	0	
4	0	0	0	0	0	507	508	515	31	0	
5	0	0	0	0	0	506	504	515	32	0	
6	0	0	0	0	2	511	508	508	31	0	
7	0	0	0	0	0	510	509	509	32	0	
8	0	0	0	0	0	508	510	506	31	0	
9	0	0	0	0	0	507	512	507	31	0	
10	0	0	0	0	0	502	511	507	31	0	
11	0	0	0	0	0	502	509	505	31	0	
12	0	0	0	0	0	504	515	509	31	0	
13	0	0	0	0	0	503	516	508	31	0	
14	0	0	0	0	2	505	515	510	31	0	
15	0	0	0	0	0	509	513	508	31	0	
0	0	0	0	0	0	508	509	510	31	0	
1	0	0	0	0	0	507	509	508	32	0	
2	0	0	0	0	0	503	512	506	31	0	
3	0	0	0	0	0	502	513	512	31	0	
4	0	0	0	0	0	501	513	511	31	0	
5	0	0	0	0	0	502	514	514	32	0	
6	0	0	0	0	2	505	516	512	31	0	
7	0	0	0	0	0	507	512	508	31	0	
8	0	0	0	0	0	509	512	505	31	0	
9	0	0	0	0	0	507	510	506	31	0	
10	0	0	0	0	0	506	509	507	31	0	
11	0	0	0	0	0	505	508	508	31	0	
12	0	0	0	0	0	504	510	508	31	0	
13	0	0	0	0	0	502	511	510	31	0	
14	0	0	0	0	3	502	513	510	31	0	
15	0	0	0	0	0	504	515	510	31	0	
0	0	0	0	0	0	507	517	512	31	0	
1	0	0	0	0	0	505	511	509	31	0	
2	0	0	0	0	0	503	505	509	31	0	
3	0	0	0	0	0	504	507	508	31	0	
4	0	0	0	0	0	505	511	507	31	0	
5	0	0	0	0	0	507	514	510	31	0	
6	0	0	0	0	3	508	513	507	31	0	
7	0	0	0	0	0	504	509	506	31	0	
8	0	0	0	0	0	507	511	510	31	0	
9	0	0	0	0	0	507	515	510	31	0	
10	0	0	0	0	0	505	512	511	32	0	
11	0	0	0	0	0	502	512	514	31	0	
12	0	0	0	0	0	499	513	513	32	0	
13	0	0	0	0	0	502	512	512	31	0	
14	0	0	0	0	1	505	510	509	31	0	
15	0	0	0	0	0	508	513	508	31	0	
0	0	0	0	0	0	508	518	507	31	0	
1	0	0	0	0	0	508	519	508	31	0	
2	0	0	0	0	0	507	517	508	31	0	
3	0	0	0	0	0	505	514	509	31	0	
4	0	0	0	0	0	503	513	509	31	0	
5	0	0	0	0	0	504	511	510	31	0	
6	0	0	0	0	1	507	512	511	32	0	
7	0	0	0	0	0	506	513	507	32	0	
8	0	0	0	0	0	505	510	508	31	0	
9	0	0	0	0	0	507	509	508	31	0	
10	0	0	0	0	0	505	508	506	31	0	
11	0	0	0	0	0	503	512	506	31	0	
12	0	0	0	0	0	500	510	509	31	0	
13	0	0	0	0	0	503	512	510	31	0	
14	0	0	0	0	1	505	510	510	31	0	
15	0	0	0	0	0	505	511	510	31	0	
0	0	0	0	0	0	506	511	512	31	0	
1	0	0	0	0	0	504	513	513	32	0	
2	0	0	0	0	0	503	514	512	31	0	
3	0	0	0	0	0	504	515	510	31	0	
4	0	0	0	0	0	504	512	512	31	0	
5	0	0	0	0	0	507	510	507	31	0	
6	0	0	0	0	2	507	513	510	31	0	
7	0	0	0	0	0	506	513	510	31	0	
8	0	0	0	0	0	506	512	511	32	0	
9	0	0	0	0	0	505	511	511	31	0	
10	0	0	0	0	0	505	510	509	31	0	
11	0	0	0	0	0	508	512	506	31	0	
12	0	0	0	0	0	508	512	509	31	0	
13	0	0	0	0	0	504	512	509	31	0	
14	0	0	0	0	2	506	512	508	31	0	
15	0	0	0	0	0	507	515	508	31	0	
0	0	0	0	0	0	504	511	506	31	0	
1	0	0	0	0	0	501	508	512	31	0	
2	0	0	0	0	0	504	508	510	32	0	
3	0	0	0	0	0	504	507	508	31	0	
4	0	0	0	0	0	503	513	511	31	0	
5	0	0	0	0	0	504	521	510	31	0	
6	0	0	0	0	2	504	520	511	31	0	
7	0	0	0	0	0	505	515	510	31	0	
8	0	0	0	0	0	502	512	510	31	0	
9	0	0	0	0	0	504	510	508	31	0	
10	0	0	0	0	0	507	517	508	31	0	
11	0	0	0	0	0	507	515	508	31	0	
12	0	0	0	0	0	509	512	509	31	0	
13	0	0	0	0	0	508	507	510	31	0	
14	0	0	0	0	2	505	512	508	31	0	
15	0	0	0	0	0	506	513	509	31	0	
0	0	0	0	0	0	504	511	507	31	0	
1	0	0	0	0	0	504	512	507	31	0	
2	0	0	0	0	0	504	510	508	31	0	
3	0	0	0	0	0	503	512	511	31	0	
4	0	0	0	0	0	504	511	513	31	0	
5	0	0	0	0	0	505	512	509	31	0	
6	0	0	0	0	2	508	516	509	31	0	
7	0	0	0	0	0	507	514	509	31	0	
8	0	0	0	0	0	506	512	508	31	0	
9	0	0	0	0	0	505	510	510	31	0	
10	0	0	0	0	0	507	511	509	31	0	
11	0	0	0	0	0	505	509	508	31	0	
12	0	0	0	0	0	503	508	509	31	0	
13	0	0	0	0	0	502	508	509	31	0	
14	0	0	0	0	2	500	508	506	31	0	
15	0	0	0	0	0	503	513	509	32	0	
0	0	0	0	0	0	504	517	507	31	0	
1	0	0	0	0	0	508	516	510	31	0	
2	0	0	0	0	0	507	515	511	31	0	
3	0	0	0	0	0	506	513	512	32	0	
4	0	0	0	0	0	505	517	513	31	0	
5	0	0	0	0	0	504	515	511	31	0	
6	0	0	0	0	2	505	510	513	31	0	
7	0	0	0	0	0	505	508	514	31	0	
8	0	0	0	0	0	504	505	512	32	0	
9	0	0	0	0	0	504	510	510	32	0	
10	0	0	0	0	0	505	517	510	31	0	
11	0	0	0	0	0	507	517	508	31	0	
12	0	0	0	0	0	505	516	505	31	0	
13	0	0	0	0	0	505	511	505	31	0	
14	0	0	0	0	2	504	506	507	31	0	
15	0	0	0	0	0	504	505	511	31	0	
0	0	0	0	0	0	505	511	510	31	0	
1	0	0	0	0	0	504	512	507	31	0	
2	0	0	0	0	0	504	512	507	31	0	
3	0	0	0	0	0	506	512	506	31	0	
4	0	0	0	0	0	508	514	507	31	0	
5	0	0	0	0	0	509	514	510	31	0	
6	0	0	0	0	2	508	513	509	31	0	
7	0	0	0	0	0	504	511	509	31	0	
8	0	0	0	0	0	507	513	508	31	0	
9	0	0	0	0	0	505	511	511	31	0	
10	0	0	0	0	0	505	510	506	31	0	
11	0	0	0	0	0	504	510	511	31	0	
12	0	0	0	0	0	504	511	507	31	0	
13	0	0	0	0	0	504	513	510	32	0	
14	0	0	0	0	2	505	513	511	31	0	
15	0	0	0	0	0	505	513	508	31	0	
0	0	0	0	0	0	505	514	511	31	0	
1	0	0	0	0	0	504	512	511	31	0	
2	0	0	0	0	0	504	512	510	31	0	
3	0	0	0	0	0	507	511	507	31	0	
4	0	0	0	0	0	504	512	508	31	0	
5	0	0	0	0	0	504	511	511	31	0	
6	0	0	0	0	2	502	513	515	31	0	
7	0	0	0	0	0	504	512	511	31	0	
8	0	0	0	0	0	504	515	508	31	0	
9	0	0	0	0	0	507	513	510	31	0	
10	0	0	0	0	0	505	510	510	31	0	
11	0	0	0	0	0	505	511	507	31	0	
12	0	0	0	0	0	506	511	506	31	0	
13	0	0	0	0	0	506	511	510	31	0	
14	0	0	0	0	1	503	511	512	31	0	
15	0	0	0	0	0	501	510	511	31	0	
0	0	0	0	0	0	504	512	511	31	0	
1	0	0	0	0	0	504	512	509	32	0	
2	0	0	0	0	0	505	518	508	31	0	
3	0	0	0	0	0	508	515	505	31	0	
4	0	0	0	0	0	507	513	505	31	0	
5	0	0	0	0	0	508	512	507	31	0	
6	0	0	0	0	1	505	511	508	31	0	
7	0	0	0	0	0	505	511	511	31	0	
8	0	0	0	0	0	505	509	512	31	0	
9	0	0	0	0	0	504	509	511	32	0	
10	0	0	0	0	0	504	508	509	32	0	
11	0	0	0	0	0	507	512	505	31	0	
12	0	0	0	0	0	506	510	508	31	0	
13	0	0	0	0	0	508	514	508	31	0	
14	0	0	0	0	2	507	518	508	31	0	
15	0	0	0	0	0	508	518	509	31	0	
0	0	0	0	0	0	505	513	510	31	0	
1	0	0	0	0	0	506	513	507	31	0	
2	0	0	0	0	0	507	513	507	31	0	
3	0	0	0	0	0	505	511	506	31	0	
4	0	0	0	0	0	504	510	508	31	0	
5	0	0	0	0	0	504	510	512	31	0	
6	0	0	0	0	2	502	513	514	31	0	
7	0	0	0	0	0	502	510	513	31	0	
8	0	0	0	0	0	502	511	515	32	0	
9	0	0	0	0	0	504	513	515	31	0	
10	0	0	0	0	0	504	511	508	31	0	
11	0	0	0	0	0	504	514	505	31	0	
12	0	0	0	0	0	504	510	507	31	0	
13	0	0	0	0	0	507	509	506	31	0	
14	0	0	0	0	2	505	508	505	31	0	
15	0	0	0	0	0	507	511	507	32	0	
0	0	0	0	0	0	507	511	508	32	0	
1	0	0	0	0	0	508	511	508	31	0	
2	0	0	0	0	0	508	512	508	31	0	
3	0	0	0	0	0	506	513	508	32	0	
4	0	0	0	0	0	504	513	511	32	0	
5	0	0	0	0	0	506	515	510	31	0	
6	0	0	0	0	2	502	515	508	31	0	
7	0	0	0	0	0	503	512	511	31	0	
8	0	0	0	0	0	502	511	512	31	0	
9	0	0	0	0	0	500	511	512	31	0	
10	0	0	0	0	0	504	510	510	31	0	
11	0	0	0	0	0	505	509	510	32	0	
12	0	0	0	0	0	507	510	509	31	0	
13	0	0	0	0	0	507	513	507	31	0	
14	0	0	0	0	2	508	518	509	31	0	
15	0	0	0	0	0	509	516	508	31	0	
0	0	0	0	0	0	506	514	508	31	0	
1	0	0	0	0	0	508	512	508	31	0	
2	0	0	0	0	0	507	513	506	31	0	
3	0	0	0	0	0	505	513	505	31	0	
4	0	0	0	0	0	506	510	505	31	0	
5	0	0	0	0	0	504	510	509	31	0	
6	0	0	0	0	2	504	511	508	31	0	
7	0	0	0	0	0	502	509	508	31	0	
8	0	0	0	0	0	503	513	512	31	0	
9	0	0	0	0	0	503	513	514	31	0	
10	0	0	0	0	0	505	511	513	31	0	
11	0	0	0	0	0	502	513	513	32	0	
12	0	0	0	0	0	504	512	511	32	0	
13	0	0	0	0	0	504	514	512	31	0	
14	0	0	0	0	3	507	513	509	31	0	
15	0	0	0	0	0	504	510	511	31	0	
0	0	0	0	0	0	505	513	509	31	0	
1	0	0	0	0	0	504	512	507	31	0	
2	0	0	0	0	0	503	510	508	31	0	
3	0	0	0	0	0	505	508	506	32	0	
4	0	0	0	0	0	508	508	504	31	0	
5	0	0	0	0	0	508	510	506	31	0	
6	0	0	0	0	3	508	511	512	31	0	
7	0	0	0	0	0	507	512	508	31	0	
8	0	0	0	0	0	505	517	508	31	0	
9	0	0	0	0	0	507	515	509	31	0	
10	0	0	0	0	0	506	514	511	31	0	
11	0	0	0	0	0	504	513	510	31	0	
12	0	0	0	0	0	503	512	511	31	0	
13	0	0	0	0	0	504	514	509	31	0	
14	0	0	0	0	3	504	511	511	31	0	
15	0	0	0	0	0	504	512	510	32	0	
0	0	0	0	0	0	504	512	509	31	0	
1	0	0	0	0	0	507	512	507	31	0	
2	0	0	0	0	0	506	513	508	31	0	
3	0	0	0	0	0	505	511	510	31	0	
4	0	0	0	0	0	506	511	509	31	0	
5	0	0	0	0	0	504	511	510	31	0	
6	0	0	0	0	3	504	512	510	31	0	
7	0	0	0	0	0	504	510	510	31	0	
8	0	0	0	0	0	505	508	507	31	0	
9	0	0	0	0	0	504	512	505	31	0	
10	0	0	0	0	0	507	513	507	31	0	
11	0	0	0	0	0	503	511	510	31	0	
12	0	0	0	0	0	503	512	509	31	0	
13	0	0	0	0	0	504	513	510	31	0	
14	0	0	0	0	2	506	512	511	31	0	
15	0	0	0	0	0	507	513	510	31	0	
0	0	0	0	0	0	506	513	512	32	0	
1	0	0	0	0	0	504	514	510	32	0	
2	0	0	0	0	0	505	511	512	32	0	
3	0	0	0	0	0	505	515	512	32	0	
4	0	0	0	0	0	507	515	508	31	0	
5	0	0	0	0	0	510	515	504	31	0	
6	0	0	0	0	1	507	513	505	31	0	
7	0	0	0	0	0	504	513	507	31	0	
8	0	0	0	0	0	504	511	506	31	0	
9	0	0	0	0	0	504	507	505	31	0	
10	0	0	0	0	0	506	508	507	31	0	
11	0	0	0	0	0	505	509	511	31	0	
12	0	0	0	0	0	505	512	511	32	0	
13	0	0	0	0	0	508	511	510	32	0	
14	0	0	0	0	1	504	511	512	31	0	
15	0	0	0	0	0	504	516	511	31	0	
0	0	0	0	0	0	506	515	511	31	0	
1	0	0	0	0	0	505	515	511	31	0	
2	0	0	0	0	0	505	512	509	31	0	
3	0	0	0	0	0	507	512	508	31	0	
4	0	0	0	0	0	505	514	511	31	0	
5	0	0	0	0	0	505	513	511	31	0	
6	0	0	0	0	1	503	512	508	31	0	
7	0	0	0	0	0	504	510	508	32	0	
8	0	0	0	0	0	504	508	510	32	0	
9	0	0	0	0	0	504	510	509	31	0	
10	0	0	0	0	0	505	512	508	31	0	
11	0	0	0	0	0	504	513	510	31	0	
12	0	0	0	0	0	505	514	509	31	0	
13	0	0	0	0	0	506	515	508	31	0	
14	0	0	0	0	2	506	513	511	31	0	
15	0	0	0	0	0	504	513	512	31	0	
0	0	0	0	0	0	505	515	512	31	0	
1	0	0	0	0	0	504	515	508	31	0	
2	0	0	0	0	0	504	515	507	31	0	
3	0	0	0	0	0	503	514	509	31	0	
4	0	0	0	0	0	501	511	509	31	0	
5	0	0	0	0	0	504	511	502	31	0	
6	0	0	0	0	2	506	512	503	31	0	
7	0	0	0	0	0	505	509	508	31	0	
8	0	0	0	0	0	507	508	510	31	0	
9	0	0	0	0	0	505	510	513	31	0	
10	0	0	0	0	0	505	508	512	32	0	
11	0	0	0	0	0	505	510	508	31	0	
12	0	0	0	0	0	505	511	509	31	0	
13	0	0	0	0	0	507	512	512	31	0	
14	0	0	0	0	2	507	514	513	32	0	
15	0	0	0	0	0	504	515	512	31	0	
0	0	0	0	0	0	502	515	511	31	0	
1	0	0	0	0	0	505	514	510	31	0	
2	0	0	0	0	0	504	512	505	31	0	
3	0	0	0	0	0	506	514	503	31	0	
4	0	0	0	0	0	506	512	503	31	0	
5	0	0	0	0	0	505	511	505	31	0	
6	0	0	0	0	2	504	511	510	31	0	
7	0	0	0	0	0	505	510	512	31	0	
8	0	0	0	0	0	503	512	512	32	0	
9	0	0	0	0	0	503	513	510	31	0	
10	0	0	0	0	0	505	512	507	31	0	
11	0	0	0	0	0	504	511	507	32	0	
12	0	0	0	0	0	505	511	512	31	0	
13	0	0	0	0	0	507	514	513	31	0	
14	0	0	0	0	2	506	510	512	31	0	
15	0	0	0	0	0	505	512	508	32	0	
0	0	0	0	0	0	505	511	510	32	0	
1	0	0	0	0	0	507	512	510	32	0	
2	0	0	0	0	0	505	512	512	31	0	
3	0	0	0	0	0	506	512	509	31	0	
4	0	0	0	0	0	507	513	505	31	0	
5	0	0	0	0	0	507	516	504	31	0	
6	0	0	0	0	2	506	517	504	31	0	
7	0	0	0	0	0	504	516	511	31	0	
8	0	0	0	0	0	503	517	511	31	0	
9	0	0	0	0	0	504	512	510	31	0	
10	0	0	0	0	0	507	512	507	31	0	
11	0	0	0	0	0	502	510	506	31	0	
12	0	0	0	0	0	504	505	509	31	0	
13	0	0	0	0	0	502	505	511	31	0	
14	0	0	0	0	2	504	508	512	31	0	
15	0	0	0	0	0	503	511	513	32	0	
0	0	0	0	0	0	503	512	513	32	0	
1	0	0	0	0	0	504	515	510	32	0	
2	0	0	0	0	0	507	514	510	32	0	
3	0	0	0	0	0	508	513	505	32	0	
4	0	0	0	0	0	507	510	504	31	0	
5	0	0	0	0	0	507	510	505	31	0	
6	0	0	0	0	2	505	511	505	31	0	
7	0	0	0	0	0	505	511	510	31	0	
8	0	0	0	0	0	506	512	511	31	0	
9	0	0	0	0	0	504	513	513	31	0	
10	0	0	0	0	0	505	515	511	31	0	
11	0	0	0	0	0	505	515	511	31	0	
12	0	0	0	0	0	505	512	508	31	0	
13	0	0	0	0	0	505	513	511	31	0	
14	0	0	0	0	2	503	511	511	31	0	
15	0	0	0	0	0	503	511	511	31	0	
0	0	0	0	0	0	504	510	512	32	0	
1	0	0	0	0	0	505	510	510	32	0	
2	0	0	0	0	0	504	512	510	31	0	
3	0	0	0	0	0	505	513	512	32	0	
4	0	0	0	0	0	506	515	511	32	0	
5	0	0	0	0	0	511	513	508	31	0	
6	0	0	0	0	2	509	511	505	31	0	
7	0	0	0	0	0	508	513	504	31	0	
8	0	0	0	0	0	507	513	504	31	0	
9	0	0	0	0	0	507	512	505	31	0	
10	0	0	0	0	0	504	511	508	31	0	
11	0	0	0	0	0	504	513	507	32	0	
12	0	0	0	0	0	502	515	510	32	0	
13	0	0	0	0	0	502	515	510	31	0	
14	0	0	0	0	2	503	512	508	31	0	
15	0	0	0	0	0	505	512	508	31	0	
0	0	0	0	0	0	503	512	509	31	0	
1	0	0	0	0	0	503	508	512	31	0	
2	0	0	0	0	0	503	507	509	31	0	
3	0	0	0	0	0	504	508	506	31	0	
4	0	0	0	0	0	503	510	514	31	0	
5	0	0	0	0	0	503	511	513	31	0	
6	0	0	0	0	1	505	511	509	31	0	
7	0	0	0	0	0	504	510	507	31	0	
8	0	0	0	0	0	507	515	505	31	0	
9	0	0	0	0	0	508	514	506	31	0	
10	0	0	0	0	0	507	515	509	31	0	
11	0	0	0	0	0	506	513	511	31	0	
12	0	0	0	0	0	505	514	508	31	0	
13	0	0	0	0	0	506	513	509	31	0	
14	0	0	0	0	1	506	513	509	31	0	
15	0	0	0	0	0	503	512	510	31	0	
0	0	0	0	0	0	505	514	512	31	0	
1	0	0	0	0	0	507	512	510	31	0	
2	0	0	0	0	0	505	512	510	31	0	
3	0	0	0	0	0	504	512	511	31	0	
4	0	0	0	0	0	504	509	508	32	0	
5	0	0	0	0	0	503	511	510	32	0	
6	0	0	0	0	1	504	512	512	32	0	
7	0	0	0	0	0	505	512	510	32	0	
8	0	0	0	0	0	504	511	509	32	0	
9	0	0	0	0	0	505	510	507	31	0	
10	0	0	0	0	0	509	511	507	31	0	
11	0	0	0	0	0	504	514	508	31	0	
12	0	0	0	0	0	503	515	507	31	0	
13	0	0	0	0	0	506	515	505	31	0	
14	0	0	0	0	3	506	514	508	31	0	
15	0	0	0	0	0	505	511	511	31	0	
0	0	0	0	0	0	504	511	514	31	0	
1	0	0	0	0	0	504	512	513	31	0	
2	0	0	0	0	0	507	513	511	31	0	
3	0	0	0	0	0	507	513	509	31	0	
4	0	0	0	0	0	507	514	509	31	0	
5	0	0	0	0	0	509	512	507	31	0	
6	0	0	0	0	2	507	513	507	31	0	
7	0	0	0	0	0	504	512	509	31	0	
8	0	0	0	0	0	504	512	509	31	0	
9	0	0	0	0	0	502	512	508	31	0	
10	0	0	0	0	0	504	511	511	31	0	
11	0	0	0	0	0	505	511	510	31	0	
12	0	0	0	0	0	504	509	510	32	0	
13	0	0	0	0	0	505	508	510	32	0	
14	0	0	0	0	2	507	510	509	31	0	
15	0	0	0	0	0	506	510	511	31	0	
0	0	0	0	0	0	504	512	507	31	0	
1	0	0	0	0	0	504	514	509	32	0	
2	0	0	0	0	0	503	511	512	31	0	
3	0	0	0	0	0	505	512	513	31	0	
4	0	0	0	0	0	505	512	512	32	0	
5	0	0	0	0	0	504	512	511	32	0	
6	0	0	0	0	2	507	512	508	31	0	
7	0	0	0	0	0	503	515	507	31	0	
8	0	0	0	0	0	508	513	507	31	0	
9	0	0	0	0	0	511	516	501	31	0	
10	0	0	0	0	0	508	514	500	31	0	
11	0	0	0	0	0	504	515	504	31	0	
12	0	0	0	0	0	504	513	506	31	0	
13	0	0	0	0	0	502	512	506	31	0	
14	0	0	0	0	2	502	512	508	31	0	
15	0	0	0	0	0	504	508	508	31	0	
0	0	0	0	0	0	505	509	512	32	0	
1	0	0	0	0	0	503	510	510	32	0	
2	0	0	0	0	0	504	509	508	31	0	
3	0	0	0	0	0	504	508	513	32	0	
4	0	0	0	0	0	505	509	511	31	0	
5	0	0	0	0	0	509	511	509	31	0	
6	0	0	0	0	2	508	510	510	31	0	
7	0	0	0	0	0	506	510	512	31	0	
8	0	0	0	0	0	503	514	512	31	0	
9	0	0	0	0	0	502	513	510	31	0	
10	0	0	0	0	0	501	513	510	31	0	
11	0	0	0	0	0	501	511	510	31	0	
12	0	0	0	0	0	504	512	509	31	0	
13	0	0	0	0	0	505	513	507	31	0	
14	0	0	0	0	2	504	512	509	31	0	
15	0	0	0	0	0	505	515	509	31	0	
0	0	0	0	0	0	504	515	512	31	0	
1	0	0	0	0	0	507	516	512	31	0	
2	0	0	0	0	0	508	514	509	31	0	
3	0	0	0	0	0	510	512	508	31	0	
4	0	0	0	0	0	508	510	510	31	0	
5	0	0	0	0	0	505	508	508	31	0	
6	0	0	0	0	2	506	511	512	31	0	
7	0	0	0	0	0	507	510	511	31	0	
8	0	0	0	0	0	507	511	509	32	0	
9	0	0	0	0	0	505	511	508	31	0	
10	0	0	0	0	0	507	515	508	31	0	
11	0	0	0	0	0	506	512	506	31	0	
12	0	0	0	0	0	505	513	504	31	0	
13	0	0	0	0	0	504	512	505	31	0	
14	0	0	0	0	2	504	512	510	31	0	
15	0	0	0	0	0	506	515	509	31	0	
0	0	0	0	0	0	503	513	512	31	0	
1	0	0	0	0	0	503	513	515	31	0	
2	0	0	0	0	0	503	515	512	31	0	
3	0	0	0	0	0	505	514	510	31	0	
4	0	0	0	0	0	505	515	510	31	0	
5	0	0	0	0	0	505	514	510	32	0	
6	0	0	0	0	3	509	511	510	31	0	
7	0	0	0	0	0	508	513	511	31	0	
8	0	0	0	0	0	508	514	510	31	0	
9	0	0	0	0	0	505	512	507	31	0	
10	0	0	0	0	0	503	511	504	31	0	
11	0	0	0	0	0	499	510	505	31	0	
12	0	0	0	0	0	501	508	510	31	0	
13	0	0	0	0	0	502	505	510	32	0	
14	0	0	0	0	2	504	510	511	31	0	
15	0	0	0	0	0	503	511	508	31	0	
0	0	0	0	0	0	504	512	512	31	0	
1	0	0	0	0	0	503	512	513	32	0	
2	0	0	0	0	0	505	513	513	31	0	
3	0	0	0	0	0	507	511	507	31	0	
4	0	0	0	0	0	507	512	509	31	0	
5	0	0	0	0	0	506	515	506	31	0	
6	0	0	0	0	1	508	513	511	31	0	
7	0	0	0	0	0	507	515	510	31	0	
8	0	0	0	0	0	508	516	509	31	0	
9	0	0	0	0	0	508	513	509	31	0	
10	0	0	0	0	0	508	513	510	31	0	
11	0	0	0	0	0	508	514	506	31	0	
12	0	0	0	0	0	507	513	507	31	0	
13	0	0	0	0	0	509	513	508	31	0	
14	0	0	0	0	1	507	512	507	31	0	
15	0	0	0	0	0	504	510	510	31	0	
0	0	0	0	0	0	503	509	509	31	0	
1	0	0	0	0	0	504	511	510	32	0	
2	0	0	0	0	0	502	510	511	32	0	
3	0	0	0	0	0	501	510	516	31	0	
4	0	0	0	0	0	503	508	514	31	0	
5	0	0	0	0	0	503	509	508	31	0	
6	0	0	0	0	2	504	508	508	31	0	
7	0	0	0	0	0	503	513	508	31	0	
8	0	0	0	0	0	502	515	508	31	0	
9	0	0	0	0	0	505	515	510	31	0	
10	0	0	0	0	0	501	512	511	31	0	
11	0	0	0	0	0	504	513	510	31	0	
12	0	0	0	0	0	504	511	508	31	0	
13	0	0	0	0	0	506	516	507	31	0	
14	0	0	0	0	3	506	513	507	31	0	
15	0	0	0	0	0	504	511	507	31	0	
0	0	0	0	0	0	509	512	507	32	0	
1	0	0	0	0	0	507	513	507	31	0	
2	0	0	0	0	0	505	511	507	32	0	
3	0	0	0	0	0	505	513	510	31	0	
4	0	0	0	0	0	505	512	514	31	0	
5	0	0	0	0	0	500	511	512	32	0	
6	0	0	0	0	2	504	510	513	31	0	
7	0	0	0	0	0	504	510	511	31	0	
8	0	0	0	0	0	507	512	510	31	0	
9	0	0	0	0	0	513	512	507	31	0	
10	0	0	0	0	0	513	513	507	31	0	
11	0	0	0	0	0	510	513	506	31	0	
12	0	0	0	0	0	509	513	507	31	0	
13	0	0	0	0	0	511	513	505	31	0	
14	0	0	0	0	2	505	513	507	31	0	
15	0	0	0	0	0	503	513	510	31	0	
0	0	0	0	0	0	502	514	509	31	0	
1	0	0	0	0	0	499	514	507	31	0	
2	0	0	0	0	0	501	513	507	31	0	
3	0	0	0	0	0	501	512	510	31	0	
4	0	0	0	0	0	500	510	510	31	0	
5	0	0	0	0	0	500	512	510	31	0	
6	0	0	0	0	2	503	514	511	31	0	
7	0	0	0	0	0	508	511	512	31	0	
8	0	0	0	0	0	507	510	512	32	0	
9	0	0	0	0	0	510	511	510	31	0	
10	0	0	0	0	0	504	511	507	31	0	
11	0	0	0	0	0	503	511	508	31	0	
12	0	0	0	0	0	501	514	506	31	0	
13	0	0	0	0	0	504	514	511	31	0	
14	0	0	0	0	2	502	511	512	32	0	
15	0	0	0	0	0	505	508	511	31	0	
0	0	0	0	0	0	512	510	508	31	0	
1	0	0	0	0	0	512	510	508	31	0	
2	0	0	0	0	0	512	509	506	31	0	
3	0	0	0	0	0	508	513	508	31	0	
4	0	0	0	0	0	505	510	508	32	0	
5	0	0	0	0	0	502	511	511	31	0	
6	0	0	0	0	2	503	515	512	31	0	
7	0	0	0	0	0	505	517	510	32	0	
8	0	0	0	0	0	505	517	512	31	0	
9	0	0	0	0	0	503	515	515	31	0	
10	0	0	0	0	0	503	513	512	31	0	
11	0	0	0	0	0	504	511	510	31	0	
12	0	0	0	0	0	500	509	509	31	0	
13	0	0	0	0	0	500	507	507	31	0	
14	0	0	0	0	2	505	507	506	31	0	
15	0	0	0	0	0	505	512	506	31	0	
0	0	0	0	0	0	506	515	510	31	0	
1	0	0	0	0	0	508	515	508	31	0	
2	0	0	0	0	0	507	515	509	31	0	
3	0	0	0	0	0	506	516	508	31	0	
4	0	0	0	0	0	505	513	512	31	0	
5	0	0	0	0	0	504	513	510	31	0	
6	0	0	0	0	2	504	512	510	31	0	
7	0	0	0	0	0	507	508	509	31	0	
8	0	0	0	0	0	510	512	505	31	0	
9	0	0	0	0	0	509	512	506	31	0	
10	0	0	0	0	0	508	512	506	31	0	
11	0	0	0	0	0	508	514	503	31	0	
12	0	0	0	0	0	503	512	510	31	0	
13	0	0	0	0	0	496	510	514	31	0	
14	0	0	0	0	2	493	508	515	32	0	
15	0	0	0	0	0	493	505	515	32	0	
0	0	0	0	0	0	500	505	514	32	0	
1	0	0	0	0	0	508	511	507	32	0	
2	0	0	0	0	0	511	515	505	31	0	
3	0	0	0	0	0	511	516	508	31	0	
4	0	0	0	0	0	515	519	506	31	0	
5	0	0	0	0	0	514	519	508	31	0	
6	0	0	0	0	2	512	513	509	31	0	
7	0	0	0	0	0	504	511	510	31	0	
8	0	0	0	0	0	504	510	510	31	0	
9	0	0	0	0	0	503	512	513	31	0	
10	0	0	0	0	0	500	512	512	32	0	
11	0	0	0	0	0	503	512	511	31	0	
12	0	0	0	0	0	504	510	508	31	0	
13	0	0	0	0	0	505	509	508	31	0	
14	0	0	0	0	1	505	511	508	31	0	
15	0	0	0	0	0	503	514	506	32	0	
0	0	0	0	0	0	504	511	507	31	0	
1	0	0	0	0	0	502	511	508	31	0	
2	0	0	0	0	0	502	515	509	31	0	
3	0	0	0	0	0	506	511	510	31	0	
4	0	0	0	0	0	506	510	510	31	0	
5	0	0	0	0	0	508	513	506	31	0	
6	0	0	0	0	1	508	513	508	31	0	
7	0	0	0	0	0	508	516	508	31	0	
8	0	0	0	0	0	504	512	509	31	0	
9	0	0	0	0	0	504	510	512	32	0	
10	0	0	0	0	0	504	515	511	31	0	
11	0	0	0	0	0	508	513	510	31	0	
12	0	0	0	0	0	510	515	509	32	0	
13	0	0	0	0	0	508	514	510	32	0	
14	0	0	0	0	1	503	513	511	32	0	
15	0	0	0	0	0	499	514	511	32	0	
0	0	0	0	0	0	499	513	508	31	0	
1	0	0	0	0	0	504	511	510	31	0	
2	0	0	0	0	0	508	512	508	31	0	
3	0	0	0	0	0	512	516	505	31	0	
4	0	0	0	0	0	511	516	502	31	0	
5	0	0	0	0	0	514	516	502	31	0	
6	0	0	0	0	2	507	513	505	31	0	
7	0	0	0	0	0	500	507	510	31	0	
8	0	0	0	0	0	497	504	516	32	0	
9	0	0	0	0	0	496	506	517	32	0	
10	0	0	0	0	0	501	505	514	32	0	
11	0	0	0	0	0	503	508	516	32	0	
12	0	0	0	0	0	502	506	512	32	0	
13	0	0	0	0	0	504	509	508	31	0	
14	0	0	0	0	2	508	509	509	31	0	
15	0	0	0	0	0	507	511	510	31	0	
0	0	0	0	0	0	504	510	510	31	0	
1	0	0	0	0	0	503	511	509	31	0	
2	0	0	0	0	0	505	516	507	32	0	
3	0	0	0	0	0	506	519	508	31	0	
4	0	0	0	0	0	507	515	510	31	0	
5	0	0	0	0	0	507	517	510	32	0	
6	0	0	0	0	3	506	516	508	31	0	
7	0	0	0	0	0	505	515	512	31	0	
8	0	0	0	0	0	503	513	511	31	0	
9	0	0	0	0	0	499	508	511	31	0	
10	0	0	0	0	0	501	509	509	31	0	
11	0	0	0	0	0	501	509	511	32	0	
12	0	0	0	0	0	500	506	510	31	0	
13	0	0	0	0	0	505	507	509	31	0	
14	0	0	0	0	2	510	512	508	31	0	
15	0	0	0	0	0	515	511	507	31	0	
0	0	0	0	0	0	512	511	508	31	0	
1	0	0	0	0	0	512	510	504	31	0	
2	0	0	0	0	0	508	514	505	31	0	
3	0	0	0	0	0	507	514	505	31	0	
4	0	0	0	0	0	503	514	510	31	0	
5	0	0	0	0	0	499	512	513	31	0	
6	0	0	0	0	2	500	513	512	31	0	
7	0	0	0	0	0	501	510	511	31	0	
8	0	0	0	0	0	501	511	510	31	0	
9	0	0	0	0	0	504	511	509	31	0	
10	0	0	0	0	0	506	512	510	31	0	
11	0	0	0	0	0	505	513	509	31	0	
12	0	0	0	0	0	508	518	507	31	0	
13	0	0	0	0	0	507	518	505	31	0	
14	0	0	0	0	2	504	516	508	31	0	
15	0	0	0	0	0	504	513	510	31	0	
0	0	0	0	0	0	504	511	512	31	0	
1	0	0	0	0	0	502	508	513	31	0	
2	0	0	0	0	0	504	509	511	31	0	
3	0	0	0	0	0	507	513	510	31	0	
4	0	0	0	0	0	513	514	506	31	0	
5	0	0	0	0	0	513	515	507	31	0	
6	0	0	0	0	2	513	512	510	31	0	
7	0	0	0	0	0	509	512	507	31	0	
8	0	0	0	0	0	505	508	505	31	0	
9	0	0	0	0	0	501	510	504	31	0	
10	0	0	0	0	0	499	512	511	31	0	
11	0	0	0	0	0	495	514	512	31	0	
12	0	0	0	0	0	498	511	513	31	0	
13	0	0	0	0	0	499	509	512	32	0	
14	0	0	0	0	2	503	508	508	32	0	
15	0	0	0	0	0	502	511	508	31	0	
0	0	0	0	0	0	503	511	510	32	0	
1	0	0	0	0	0	500	508	512	31	0	
2	0	0	0	0	0	505	510	513	31	0	
3	0	0	0	0	0	504	508	511	31	0	
4	0	0	0	0	0	505	510	508	31	0	
5	0	0	0	0	0	507	512	507	31	0	
6	0	0	0	0	3	504	510	508	31	0	
7	0	0	0	0	0	505	514	507	31	0	
8	0	0	0	0	0	507	513	508	31	0	
9	0	0	0	0	0	503	512	510	31	0	
10	0	0	0	0	0	504	509	509	31	0	
11	0	0	0	0	0	504	512	508	31	0	
12	0	0	0	0	0	510	515	510	31	0	
13	0	0	0	0	0	511	517	508	31	0	
14	0	0	0	0	2	512	520	510	31	0	
15	0	0	0	0	0	510	519	509	31	0	
0	0	0	0	0	0	508	515	511	31	0	
1	0	0	0	0	0	508	513	511	32	0	
2	0	0	0	0	0	506	511	510	32	0	
3	0	0	0	0	0	506	512	512	32	0	
4	0	0	0	0	0	504	512	512	31	0	
5	0	0	0	0	0	504	510	510	31	0	
6	0	0	0	0	2	502	509	508	31	0	
7	0	0	0	0	0	504	509	507	31	0	
8	0	0	0	0	0	503	507	507	31	0	
9	0	0	0	0	0	504	511	505	31	0	
10	0	0	0	0	0	504	509	507	31	0	
11	0	0	0	0	0	502	510	513	31	0	
12	0	0	0	0	0	504	511	512	32	0	
13	0	0	0	0	0	505	509	511	32	0	
14	0	0	0	0	1	507	512	508	31	0	
15	0	0	0	0	0	509	515	506	31	0	
0	0	0	0	0	0	508	516	505	31	0	
1	0	0	0	0	0	506	515	504	31	0	
2	0	0	0	0	0	507	514	508	31	0	
3	0	0	0	0	0	505	512	507	31	0	
4	0	0	0	0	0	506	513	508	31	0	
5	0	0	0	0	0	506	512	508	31	0	
6	0	0	0	0	1	500	510	511	31	0	
7	0	0	0	0	0	502	510	511	31	0	
8	0	0	0	0	0	504	512	507	31	0	
9	0	0	0	0	0	501	512	508	31	0	
10	0	0	0	0	0	502	512	510	31	0	
11	0	0	0	0	0	504	511	511	31	0	
12	0	0	0	0	0	507	511	511	32	0	
13	0	0	0	0	0	508	508	510	32	0	
14	0	0	0	0	1	506	507	512	32	0	
15	0	0	0	0	0	504	509	512	31	0	
0	0	0	0	0	0	504	510	510	31	0	
1	0	0	0	0	0	505	512	510	31	0	
2	0	0	0	0	0	508	515	510	31	0	
3	0	0	0	0	0	508	517	507	31	0	
4	0	0	0	0	0	508	519	508	31	0	
5	0	0	0	0	0	508	518	504	31	0	
6	0	0	0	0	3	508	519	507	31	0	
7	0	0	0	0	0	504	515	506	31	0	
8	0	0	0	0	0	501	514	509	31	0	
9	0	0	0	0	0	502	513	512	32	0	
10	0	0	0	0	0	504	509	507	31	0	
11	0	0	0	0	0	508	504	507	31	0	
12	0	0	0	0	0	507	506	506	31	0	
13	0	0	0	0	0	508	510	505	31	0	
14	0	0	0	0	2	502	514	511	31	0	
15	0	0	0	0	0	497	511	515	31	0	
0	0	0	0	0	0	496	508	515	31	0	
1	0	0	0	0	0	500	504	514	32	0	
2	0	0	0	0	0	504	509	512	32	0	
3	0	0	0	0	0	505	510	509	31	0	
4	0	0	0	0	0	507	510	510	32	0	
5	0	0	0	0	0	507	515	508	31	0	
6	0	0	0	0	2	506	515	507	31	0	
7	0	0	0	0	0	507	517	505	31	0	
8	0	0	0	0	0	508	519	507	32	0	
9	0	0	0	0	0	508	519	508	32	0	
10	0	0	0	0	0	510	519	506	31	0	
11	0	0	0	0	0	510	517	503	31	0	
12	0	0	0	0	0	509	514	502	31	0	
13	0	0	0	0	0	506	515	506	31	0	
14	0	0	0	0	3	502	512	512	31	0	
15	0	0	0	0	0	504	506	515	32	0	
0	0	0	0	0	0	501	505	518	32	0	
1	0	0	0	0	0	502	508	515	32	0	
2	0	0	0	0	0	504	513	510	32	0	
3	0	0	0	0	0	507	515	507	31	0	
4	0	0	0	0	0	506	516	508	31	0	
5	0	0	0	0	0	503	514	510	31	0	
6	0	0	0	0	2	502	509	511	31	0	
7	0	0	0	0	0	501	510	510	32	0	
8	0	0	0	0	0	500	509	510	31	0	
9	0	0	0	0	0	505	511	511	31	0	
10	0	0	0	0	0	504	508	510	32	0	
11	0	0	0	0	0	505	510	508	31	0	
12	0	0	0	0	0	509	511	503	31	0	
13	0	0	0	0	0	511	512	504	31	0	
14	0	0	0	0	2	509	511	505	31	0	
15	0	0	0	0	0	508	507	509	31	0	
0	0	0	0	0	0	502	510	512	31	0	
1	0	0	0	0	0	496	508	516	31	0	
2	0	0	0	0	0	499	510	514	32	0	
3	0	0	0	0	0	502	515	509	31	0	
4	0	0	0	0	0	507	515	508	31	0	
5	0	0	0	0	0	508	517	505	31	0	
6	0	0	0	0	2	506	513	509	31	0	
7	0	0	0	0	0	509	514	512	31	0	
8	0	0	0	0	0	511	511	510	31	0	
9	0	0	0	0	0	511	512	507	31	0	
10	0	0	0	0	0	509	510	504	32	0	
11	0	0	0	0	0	508	515	504	31	0	
12	0	0	0	0	0	502	515	503	31	0	
13	0	0	0	0	0	497	513	505	31	0	
14	0	0	0	0	2	497	512	510	31	0	
15	0	0	0	0	0	502	512	512	31	0	
0	0	0	0	0	0	504	513	508	31	0	
1	0	0	0	0	0	505	513	509	32	0	
2	0	0	0	0	0	505	513	510	31	0	
3	0	0	0	0	0	508	512	512	31	0	
4	0	0	0	0	0	508	515	512	31	0	
5	0	0	0	0	0	508	513	506	31	0	
6	0	0	0	0	3	511	515	505	31	0	
7	0	0	0	0	0	509	511	511	31	0	
8	0	0	0	0	0	506	509	515	32	0	
9	0	0	0	0	0	502	508	515	31	0	
10	0	0	0	0	0	502	508	512	31	0	
11	0	0	0	0	0	502	506	508	31	0	
12	0	0	0	0	0	502	510	510	31	0	
13	0	0	0	0	0	500	508	513	31	0	
14	0	0	0	0	2	502	511	507	31	0	
15	0	0	0	0	0	500	514	509	31	0	
0	0	0	0	0	0	504	515	509	31	0	
1	0	0	0	0	0	505	516	510	32	0	
2	0	0	0	0	0	506	511	509	32	0	
3	0	0	0	0	0	505	509	509	31	0	
4	0	0	0	0	0	508	512	508	31	0	
5	0	0	0	0	0	505	511	508	31	0	
6	0	0	0	0	3	503	515	510	31	0	
7	0	0	0	0	0	505	514	510	31	0	
8	0	0	0	0	0	505	512	508	31	0	
9	0	0	0	0	0	504	513	510	31	0	
10	0	0	0	0	0	506	511	507	31	0	
11	0	0	0	0	0	507	509	506	31	0	
12	0	0	0	0	0	506	513	507	31	0	
13	0	0	0	0	0	509	513	507	31	0	
14	0	0	0	0	1	509	515	508	31	0	
15	0	0	0	0	0	507	514	510	31	0	
0	0	0	0	0	0	506	511	509	31	0	
1	0	0	0	0	0	505	515	510	31	0	
2	0	0	0	0	0	504	511	510	31	0	
3	0	0	0	0	0	507	510	511	31	0	
4	0	0	0	0	0	508	510	510	32	0	
5	0	0	0	0	0	507	511	510	31	0	
6	0	0	0	0	1	508	510	510	32	0	
7	0	0	0	0	0	504	508	511	31	0	
8	0	0	0	0	0	504	511	511	32	0	
9	0	0	0	0	0	502	510	510	31	0	
10	0	0	0	0	0	504	515	509	31	0	
11	0	0	0	0	0	504	514	508	31	0	
12	0	0	0	0	0	505	514	507	31	0	
13	0	0	0	0	0	505	514	508	31	0	
14	0	0	0	0	2	503	512	510	32	0	
15	0	0	0	0	0	504	512	511	31	0	
0	0	0	0	0	0	507	512	510	31	0	
1	0	0	0	0	0	506	512	508	31	0	
2	0	0	0	0	0	504	513	510	31	0	
3	0	0	0	0	0	504	512	511	31	0	
4	0	0	0	0	0	505	511	510	31	0	
5	0	0	0	0	0	506	513	510	31	0	
6	0	0	0	0	2	502	513	510	31	0	
7	0	0	0	0	0	506	513	508	31	0	
8	0	0	0	0	0	504	512	509	31	0	
9	0	0	0	0	0	503	513	507	31	0	
10	0	0	0	0	0	504	515	507	31	0	
11	0	0	0	0	0	504	511	508	31	0	
12	0	0	0	0	0	504	511	509	31	0	
13	0	0	0	0	0	505	511	509	31	0	
14	0	0	0	0	2	503	509	512	32	0	
15	0	0	0	0	0	504	510	511	32	0	
0	0	0	0	0	0	508	512	508	31	0	
1	0	0	0	0	0	507	511	504	31	0	
2	0	0	0	0	0	510	513	505	31	0	
3	0	0	0	0	0	509	513	507	31	0	
4	0	0	0	0	0	507	515	510	31	0	
5	0	0	0	0	0	506	514	512	32	0	
6	0	0	0	0	2	505	512	510	32	0	
7	0	0	0	0	0	504	512	509	31	0	
8	0	0	0	0	0	505	513	511	31	0	
9	0	0	0	0	0	504	512	508	31	0	
10	0	0	0	0	0	501	508	511	32	0	
11	0	0	0	0	0	501	510	511	32	0	
12	0	0	0	0	0	502	510	511	31	0	
13	0	0	0	0	0	505	511	510	31	0	
14	0	0	0	0	2	503	511	510	31	0	
15	0	0	0	0	0	502	513	510	31	0	
0	0	0	0	0	0	505	513	510	31	0	
1	0	0	0	0	0	507	512	509	31	0	
2	0	0	0	0	0	508	513	507	31	0	
3	0	0	0	0	0	507	512	508	31	0	
4	0	0	0	0	0	508	512	508	31	0	
5	0	0	0	0	0	510	513	510	31	0	
6	0	0	0	0	2	507	513	511	31	0	
7	0	0	0	0	0	506	512	510	31	0	
8	0	0	0	0	0	505	513	510	31	0	
9	0	0	0	0	0	505	510	506	31	0	
10	0	0	0	0	0	504	509	503	31	0	
11	0	0	0	0	0	505	510	509	31	0	
12	0	0	0	0	0	502	512	507	31	0	
13	0	0	0	0	0	502	511	509	31	0	
14	0	0	0	0	3	503	512	509	31	0	
15	0	0	0	0	0	506	512	510	31	0	
0	0	0	0	0	0	504	517	510	31	0	
1	0	0	0	0	0	504	517	512	31	0	
2	0	0	0	0	0	504	515	512	31	0	
3	0	0	0	0	0	506	514	510	31	0	
4	0	0	0	0	0	505	515	512	31	0	
5	0	0	0	0	0	505	511	509	31	0	
6	0	0	0	0	3	504	512	511	31	0	
7	0	0	0	0	0	503	513	511	32	0	
8	0	0	0	0	0	505	510	511	32	0	
9	0	0	0	0	0	507	510	511	32	0	
10	0	0	0	0	0	504	511	508	31	0	
11	0	0	0	0	0	508	512	507	31	0	
12	0	0	0	0	0	506	513	507	31	0	
13	0	0	0	0	0	506	510	508	31	0	
14	0	0	0	0	2	503	509	508	31	0	
15	0	0	0	0	0	504	510	507	31	0	
0	0	0	0	0	0	506	512	506	31	0	
1	0	0	0	0	0	508	512	505	31	0	
2	0	0	0	0	0	505	511	504	31	0	
3	0	0	0	0	0	506	510	508	31	0	
4	0	0	0	0	0	506	513	510	31	0	
5	0	0	0	0	0	506	514	511	31	0	
6	0	0	0	0	2	507	512	511	31	0	
7	0	0	0	0	0	503	512	510	31	0	
8	0	0	0	0	0	504	512	512	31	0	
9	0	0	0	0	0	501	513	512	31	0	
10	0	0	0	0	0	504	516	510	31	0	
11	0	0	0	0	0	507	515	511	31	0	
12	0	0	0	0	0	504	512	510	31	0	
13	0	0	0	0	0	505	511	510	32	0	
14	0	0	0	0	3	506	510	507	31	0	
15	0	0	0	0	0	505	511	509	31	0	
0	0	0	0	0	0	507	512	509	31	0	
1	0	0	0	0	0	506	511	508	31	0	
2	0	0	0	0	0	507	511	510	32	0	
3	0	0	0	0	0	504	511	509	31	0	
4	0	0	0	0	0	507	512	509	31	0	
5	0	0	0	0	0	505	513	508	31	0	
6	0	0	0	0	1	504	514	509	31	0	
7	0	0	0	0	0	505	512	510	31	0	
8	0	0	0	0	0	508	511	509	31	0	
9	0	0	0	0	0	508	511	508	31	0	
10	0	0	0	0	0	502	512	509	31	0	
11	0	0	0	0	0	502	513	511	31	0	
12	0	0	0	0	0	504	512	512	31	0	
13	0	0	0	0	0	504	514	510	31	0	
14	0	0	0	0	1	504	510	508	31	0	
15	0	0	0	0	0	504	511	507	31	0	
0	0	0	0	0	0	506	510	508	31	0	
1	0	0	0	0	0	507	511	507	31	0	
2	0	0	0	0	0	507	511	507	31	0	
3	0	0	0	0	0	504	512	506	31	0	
4	0	0	0	0	0	504	514	510	31	0	
5	0	0	0	0	0	502	514	512	32	0	
6	0	0	0	0	1	504	511	513	32	0	
7	0	0	0	0	0	505	514	512	32	0	
8	0	0	0	0	0	505	513	511	31	0	
9	0	0	0	0	0	505	514	508	31	0	
10	0	0	0	0	0	504	514	510	31	0	
11	0	0	0	0	0	504	512	513	31	0	
12	0	0	0	0	0	505	508	511	31	0	
13	0	0	0	0	0	502	511	509	31	0	
14	0	0	0	0	2	504	511	509	31	0	
15	0	0	0	0	0	503	512	507	31	0	
0	0	0	0	0	0	502	511	508	31	0	
1	0	0	0	0	0	506	511	507	31	0	
2	0	0	0	0	0	508	511	507	31	0	
3	0	0	0	0	0	505	513	508	31	0	
4	0	0	0	0	0	506	511	509	31	0	
5	0	0	0	0	0	506	512	511	32	0	
6	0	0	0	0	3	507	513	511	31	0	
7	0	0	0	0	0	508	511	510	31	0	
8	0	0	0	0	0	506	512	511	31	0	
9	0	0	0	0	0	504	513	511	31	0	
10	0	0	0	0	0	505	513	512	31	0	
11	0	0	0	0	0	504	512	510	31	0	
12	0	0	0	0	0	504	513	508	31	0	
13	0	0	0	0	0	504	512	507	31	0	
14	0	0	0	0	2	504	511	510	31	0	
15	0	0	0	0	0	505	513	507	31	0	
0	0	0	0	0	0	507	513	507	31	0	
1	0	0	0	0	0	503	512	506	31	0	
2	0	0	0	0	0	506	512	505	31	0	
3	0	0	0	0	0	504	512	507	31	0	
4	0	0	0	0	0	506	512	507	31	0	
5	0	0	0	0	0	506	511	508	31	0	
6	0	0	0	0	2	504	512	510	31	0	
7	0	0	0	0	0	507	512	511	31	0	
8	0	0	0	0	0	507	513	509	31	0	
9	0	0	0	0	0	504	512	510	31	0	
10	0	0	0	0	0	506	512	509	31	0	
11	0	0	0	0	0	506	513	510	31	0	
12	0	0	0	0	0	507	514	510	31	0	
13	0	0	0	0	0	505	512	511	31	0	
14	0	0	0	0	2	503	510	510	31	0	
15	0	0	0	0	0	503	511	510	31	0	
0	0	0	0	0	0	505	510	508	31	0	
1	0	0	0	0	0	505	511	508	31	0	
2	0	0	0	0	0	507	511	508	31	0	
3	0	0	0	0	0	505	510	511	31	0	
4	0	0	0	0	0	504	509	510	31	0	
5	0	0	0	0	0	504	511	509	31	0	
6	0	0	0	0	2	504	512	510	31	0	
7	0	0	0	0	0	505	512	512	31	0	
8	0	0	0	0	0	505	512	513	31	0	
9	0	0	0	0	0	504	512	511	31	0	
10	0	0	0	0	0	505	513	509	31	0	
11	0	0	0	0	0	507	514	507	31	0	
12	0	0	0	0	0	507	514	510	31	0	
13	0	0	0	0	0	506	516	510	31	0	
14	0	0	0	0	2	505	513	509	31	0	
15	0	0	0	0	0	504	513	507	31	0	
0	0	0	0	0	0	505	511	506	31	0	
1	0	0	0	0	0	504	512	507	31	0	
2	0	0	0	0	0	505	512	505	31	0	
3	0	0	0	0	0	505	514	507	31	0	
4	0	0	0	0	0	503	511	509	31	0	
5	0	0	0	0	0	503	511	508	31	0	
6	0	0	0	0	2	504	511	510	31	0	
7	0	0	0	0	0	507	507	512	31	0	
8	0	0	0	0	0	504	509	511	31	0	
9	0	0	0	0	0	503	511	511	31	0	
10	0	0	0	0	0	504	511	511	31	0	
11	0	0	0	0	0	504	513	509	31	0	
12	0	0	0	0	0	505	512	509	31	0	
13	0	0	0	0	0	505	512	508	31	0	
14	0	0	0	0	2	506	512	509	31	0	
15	0	0	0	0	0	507	512	510	32	0	
0	0	0	0	0	0	508	512	512	32	0	
1	0	0	0	0	0	505	512	511	32	0	
2	0	0	0	0	0	505	512	511	31	0	
3	0	0	0	0	0	504	514	511	31	0	
4	0	0	0	0	0	505	515	508	31	0	
5	0	0	0	0	0	507	513	504	31	0	
6	0	0	0	0	2	507	513	507	31	0	
7	0	0	0	0	0	505	512	509	31	0	
8	0	0	0	0	0	508	510	509	31	0	
9	0	0	0	0	0	508	511	509	31	0	
10	0	0	0	0	0	506	513	507	31	0	
11	0	0	0	0	0	505	512	508	31	0	
12	0	0	0	0	0	504	512	509	31	0	
13	0	0	0	0	0	503	511	510	32	0	
14	0	0	0	0	2	505	514	510	31	0	
15	0	0	0	0	0	504	511	511	32	0	
0	0	0	0	0	0	505	512	512	31	0	
1	0	0	0	0	0	503	511	511	31	0	
2	0	0	0	0	0	504	511	510	31	0	
3	0	0	0	0	0	506	510	509	31	0	
4	0	0	0	0	0	504	511	508	31	0	
5	0	0	0	0	0	504	513	507	31	0	
6	0	0	0	0	1	504	512	507	31	0	
7	0	0	0	0	0	504	511	508	31	0	
8	0	0	0	0	0	504	511	508	31	0	
9	0	0	0	0	0	505	511	508	31	0	
10	0	0	0	0	0	508	512	508	31	0	
11	0	0	0	0	0	506	512	509	31	0	
12	0	0	0	0	0	505	511	512	32	0	
13	0	0	0	0	0	506	510	511	31	0	
14	0	0	0	0	1	506	510	510	31	0	
15	0	0	0	0	0	507	515	511	31	0	
0	0	0	0	0	0	508	516	510	31	0	
1	0	0	0	0	0	505	515	508	31	0	
2	0	0	0	0	0	506	515	505	31	0	
3	0	0	0	0	0	507	513	507	31	0	
4	0	0	0	0	0	506	511	507	31	0	
5	0	0	0	0	0	504	511	509	31	0	
6	0	0	0	0	1	502	509	508	31	0	
7	0	0	0	0	0	502	512	506	31	0	
8	0	0	0	0	0	503	511	508	31	0	
9	0	0	0	0	0	505	510	509	32	0	
10	0	0	0	0	0	503	514	511	31	0	
11	0	0	0	0	0	502	515	512	31	0	
12	0	0	0	0	0	503	514	513	31	0	
13	0	0	0	0	0	504	512	512	31	0	
14	0	0	0	0	2	505	510	512	31	0	
15	0	0	0	0	0	503	512	512	31	0	
0	0	0	0	0	0	505	511	511	31	0	
1	0	0	0	0	0	507	510	510	31	0	
2	0	0	0	0	0	505	511	510	31	0	
3	0	0	0	0	0	508	511	508	32	0	
4	0	0	0	0	0	508	512	506	31	0	
5	0	0	0	0	0	509	513	506	31	0	
6	0	0	0	0	2	507	511	509	31	0	
7	0	0	0	0	0	505	513	510	31	0	
8	0	0	0	0	0	504	514	507	31	0	
9	0	0	0	0	0	503	514	508	31	0	
10	0	0	0	0	0	504	512	509	31	0	
11	0	0	0	0	0	502	512	508	31	0	
12	0	0	0	0	0	504	515	508	31	0	
13	0	0	0	0	0	504	515	509	31	0	
14	0	0	0	0	2	508	511	510	31	0	
15	0	0	0	0	0	509	514	504	31	0	
0	0	0	0	0	0	506	512	506	31	0	
1	0	0	0	0	0	505	512	508	31	0	
2	0	0	0	0	0	503	511	509	32	0	
3	0	0	0	0	0	504	509	510	31	0	
4	0	0	0	0	0	504	510	510	31	0	
5	0	0	0	0	0	505	512	511	31	0	
6	0	0	0	0	2	505	510	507	31	0	
7	0	0	0	0	0	504	513	509	31	0	
8	0	0	0	0	0	505	513	508	31	0	
9	0	0	0	0	0	504	511	510	31	0	
10	0	0	0	0	0	503	513	511	32	0	
11	0	0	0	0	0	504	513	512	31	0	
12	0	0	0	0	0	505	511	509	31	0	
13	0	0	0	0	0	504	512	510	31	0	
14	0	0	0	0	2	506	511	508	31	0	
15	0	0	0	0	0	504	511	511	31	0	
0	0	0	0	0	0	504	511	510	31	0	
1	0	0	0	0	0	504	512	514	31	0	
2	0	0	0	0	0	505	510	509	31	0	
3	0	0	0	0	0	507	510	506	31	0	
4	0	0	0	0	0	505	511	506	31	0	
5	0	0	0	0	0	505	511	509	32	0	
6	0	0	0	0	2	504	512	511	32	0	
7	0	0	0	0	0	506	513	510	32	0	
8	0	0	0	0	0	508	513	511	31	0	
9	0	0	0	0	0	508	512	508	31	0	
10	0	0	0	0	0	505	512	509	31	0	
11	0	0	0	0	0	502	515	507	31	0	
12	0	0	0	0	0	504	512	510	31	0	
13	0	0	0	0	0	504	512	508	31	0	
14	0	0	0	0	2	506	512	508	31	0	
15	0	0	0	0	0	505	512	510	31	0	
0	0	0	0	0	0	506	514	511	31	0	
1	0	0	0	0	0	504	512	511	31	0	
2	0	0	0	0	0	503	511	509	31	0	
3	0	0	0	0	0	505	512	509	31	0	
4	0	0	0	0	0	507	514	508	31	0	
5	0	0	0	0	0	505	514	510	31	0	
6	0	0	0	0	2	504	514	509	31	0	
7	0	0	0	0	0	505	510	508	31	0	
8	0	0	0	0	0	504	513	509	31	0	
9	0	0	0	0	0	504	511	507	31	0	
10	0	0	0	0	0	504	510	509	31	0	
11	0	0	0	0	0	505	512	511	31	0	
12	0	0	0	0	0	505	513	512	31	0	
13	0	0	0	0	0	506	515	512	31	0	
14	0	0	0	0	2	507	514	508	31	0	
15	0	0	0	0	0	505	512	509	31	0	
0	0	0	0	0	0	507	512	505	31	0	
1	0	0	0	0	0	506	511	507	31	0	
2	0	0	0	0	0	505	512	510	31	0	
3	0	0	0	0	0	504	510	510	31	0	
4	0	0	0	0	0	504	511	507	31	0	
5	0	0	0	0	0	504	508	507	31	0	
6	0	0	0	0	2	507	509	510	31	0	
7	0	0	0	0	0	505	510	509	31	0	
8	0	0	0	0	0	507	508	509	31	0	
9	0	0	0	0	0	505	512	512	31	0	
10	0	0	0	0	0	505	514	510	31	0	
11	0	0	0	0	0	504	513	508	32	0	
12	0	0	0	0	0	505	511	509	31	0	
13	0	0	0	0	0	502	513	512	31	0	
14	0	0	0	0	1	504	511	511	31	0	
15	0	0	0	0	0	505	513	509	31	0	
0	0	0	0	0	0	506	511	508	31	0	
1	0	0	0	0	0	505	512	509	31	0	
2	0	0	0	0	0	505	512	507	31	0	
3	0	0	0	0	0	505	513	508	31	0	
4	0	0	0	0	0	503	514	509	31	0	
5	0	0	0	0	0	505	514	509	31	0	
6	0	0	0	0	1	508	512	509	31	0	
7	0	0	0	0	0	507	512	510	31	0	
8	0	0	0	0	0	508	512	510	31	0	
9	0	0	0	0	0	505	512	509	31	0	
10	0	0	0	0	0	505	511	508	31	0	
11	0	0	0	0	0	505	514	509	31	0	
12	0	0	0	0	0	505	513	510	31	0	
13	0	0	0	0	0	501	512	509	31	0	
14	0	0	0	0	1	504	512	513	31	0	
15	0	0	0	0	0	503	513	512	31	0	
0	0	0	0	0	0	504	511	512	31	0	
1	0	0	0	0	0	505	511	510	31	0	
2	0	0	0	0	0	502	512	509	31	0	
3	0	0	0	0	0	504	512	509	31	0	
4	0	0	0	0	0	505	512	508	31	0	
5	0	0	0	0	0	505	514	510	31	0	
6	0	0	0	0	2	508	512	507	31	0	
7	0	0	0	0	0	508	513	507	31	0	
8	0	0	0	0	0	508	513	507	31	0	
9	0	0	0	0	0	507	511	506	31	0	
10	0	0	0	0	0	507	512	508	31	0	
11	0	0	0	0	0	504	511	506	31	0	
12	0	0	0	0	0	503	513	510	31	0	
13	0	0	0	0	0	504	513	510	31	0	
14	0	0	0	0	2	505	509	508	31	0	
15	0	0	0	0	0	505	510	512	32	0	
0	0	0	0	0	0	505	511	510	32	0	
1	0	0	0	0	0	503	512	511	32	0	
2	0	0	0	0	0	504	512	512	31	0	
3	0	0	0	0	0	504	511	511	31	0	
4	0	0	0	0	0	503	510	511	31	0	
5	0	0	0	0	0	505	513	510	31	0	
6	0	0	0	0	3	505	513	506	31	0	
7	0	0	0	0	0	505	512	507	31	0	
8	0	0	0	0	0	506	512	504	31	0	
9	0	0	0	0	0	506	513	510	31	0	
10	0	0	0	0	0	504	511	509	31	0	
11	0	0	0	0	0	505	511	511	31	0	
12	0	0	0	0	0	506	512	509	31	0	
13	0	0	0	0	0	505	511	508	31	0	
14	0	0	0	0	2	505	509	507	32	0	
15	0	0	0	0	0	509	511	510	31	0	
0	0	0	0	0	0	506	511	508	31	0	
1	0	0	0	0	0	506	515	508	31	0	
2	0	0	0	0	0	504	513	508	31	0	
3	0	0	0	0	0	504	514	510	31	0	
4	0	0	0	0	0	504	513	509	31	0	
5	0	0	0	0	0	502	515	508	31	0	
6	0	0	0	0	3	505	513	510	31	0	
7	0	0	0	0	0	504	515	510	31	0	
8	0	0	0	0	0	506	513	507	31	0	
9	0	0	0	0	0	505	512	508	31	0	
10	0	0	0	0	0	504	511	510	31	0	
11	0	0	0	0	0	504	515	508	31	0	
12	0	0	0	0	0	503	513	511	31	0	
13	0	0	0	0	0	503	512	511	31	0	
14	0	0	0	0	2	505	510	509	31	0	
15	0	0	0	0	0	505	510	507	31	0	
0	0	0	0	0	0	506	509	511	31	0	
1	0	0	0	0	0	505	509	512	31	0	
2	0	0	0	0	0	504	510	511	31	0	
3	0	0	0	0	0	505	510	511	32	0	
4	0	0	0	0	0	506	514	510	32	0	
5	0	0	0	0	0	504	511	511	31	0	
6	0	0	0	0	2	502	511	513	31	0	
7	0	0	0	0	0	505	513	512	31	0	
8	0	0	0	0	0	504	513	510	31	0	
9	0	0	0	0	0	504	510	510	31	0	
10	0	0	0	0	0	505	515	508	31	0	
11	0	0	0	0	0	505	512	508	31	0	
12	0	0	0	0	0	507	510	508	31	0	
13	0	0	0	0	0	505	511	504	31	0	
14	0	0	0	0	2	505	510	508	31	0	
15	0	0	0	0	0	504	512	511	31	0	
0	0	0	0	0	0	505	513	508	32	0	
1	0	0	0	0	0	505	514	511	31	0	
2	0	0	0	0	0	505	513	510	31	0	
3	0	0	0	0	0	507	513	511	32	0	
4	0	0	0	0	0	504	514	510	31	0	
5	0	0	0	0	0	504	515	508	31	0	
6	0	0	0	0	2	505	515	507	31	0	
7	0	0	0	0	0	507	514	509	31	0	
8	0	0	0	0	0	505	511	509	31	0	
9	0	0	0	0	0	504	511	508	31	0	
10	0	0	0	0	0	505	509	508	31	0	
11	0	0	0	0	0	506	512	510	31	0	
12	0	0	0	0	0	507	510	508	31	0	
13	0	0	0	0	0	505	511	507	31	0	
14	0	0	0	0	3	505	510	508	31	0	
15	0	0	0	0	0	504	512	507	31	0	
0	0	0	0	0	0	504	513	509	31	0	
1	0	0	0	0	0	504	512	511	31	0	
2	0	0	0	0	0	503	513	514	31	0	
3	0	0	0	0	0	503	512	510	31	0	
4	0	0	0	0	0	505	511	511	31	0	
5	0	0	0	0	0	507	514	512	31	0	
6	0	0	0	0	2	506	514	509	31	0	
7	0	0	0	0	0	504	509	512	31	0	
8	0	0	0	0	0	505	512	515	31	0	
9	0	0	0	0	0	504	514	512	32	0	
10	0	0	0	0	0	504	513	512	31	0	
11	0	0	0	0	0	503	511	509	31	0	
12	0	0	0	0	0	504	513	511	31	0	
13	0	0	0	0	0	505	512	508	31	0	
14	0	0	0	0	1	507	511	506	31	0	
15	0	0	0	0	0	508	512	506	31	0	
0	0	0	0	0	0	508	513	506	31	0	
1	0	0	0	0	0	506	508	504	31	0	
2	0	0	0	0	0	505	510	508	31	0	
3	0	0	0	0	0	504	510	509	31	0	
4	0	0	0	0	0	505	511	513	32	0	
5	0	0	0	0	0	506	512	512	32	0	
6	0	0	0	0	1	505	511	508	32	0	
7	0	0	0	0	0	505	511	508	31	0	
8	0	0	0	0	0	504	510	511	31	0	
9	0	0	0	0	0	500	512	512	31	0	
10	0	0	0	0	0	503	511	509	31	0	
11	0	0	0	0	0	505	513	507	31	0	
12	0	0	0	0	0	507	513	509	31	0	
13	0	0	0	0	0	504	514	508	31	0	
14	0	0	0	0	1	507	514	507	31	0	
15	0	0	0	0	0	504	510	506	31	0	
0	0	0	0	0	0	506	511	504	32	0	
1	0	0	0	0	0	504	511	505	31	0	
2	0	0	0	0	0	507	511	505	31	0	
3	0	0	0	0	0	507	511	504	31	0	
4	0	0	0	0	0	505	512	507	31	0	
5	0	0	0	0	0	507	513	508	31	0	
6	0	0	0	0	2	503	511	508	31	0	
7	0	0	0	0	0	501	513	509	31	0	
8	0	0	0	0	0	504	511	508	31	0	
9	0	0	0	0	0	504	512	509	32	0	
10	0	0	0	0	0	506	511	506	31	0	
11	0	0	0	0	0	504	513	511	31	0	
12	0	0	0	0	0	505	511	512	31	0	
13	0	0	0	0	0	505	509	510	31	0	
14	0	0	0	0	2	506	511	511	31	0	
15	0	0	0	0	0	506	513	512	31	0	
0	0	0	0	0	0	504	512	513	31	0	
1	0	0	0	0	0	502	514	515	31	0	
2	0	0	0	0	0	503	515	511	31	0	
3	0	0	0	0	0	506	514	508	31	0	
4	0	0	0	0	0	504	512	511	31	0	
5	0	0	0	0	0	506	513	510	32	0	
6	0	0	0	0	2	504	513	506	32	0	
7	0	0	0	0	0	505	511	504	31	0	
8	0	0	0	0	0	508	511	509	31	0	
9	0	0	0	0	0	507	514	512	31	0	
10	0	0	0	0	0	507	515	508	31	0	
11	0	0	0	0	0	505	512	510	31	0	
12	0	0	0	0	0	506	513	508	31	0	
13	0	0	0	0	0	503	513	507	31	0	
14	0	0	0	0	2	506	513	511	31	0	
15	0	0	0	0	0	504	515	509	31	0	
0	0	0	0	0	0	504	512	508	31	0	
1	0	0	0	0	0	505	514	508	31	0	
2	0	0	0	0	0	504	514	507	31	0	
3	0	0	0	0	0	506	511	508	31	0	
4	0	0	0	0	0	507	509	509	31	0	
5	0	0	0	0	0	506	508	510	31	0	
6	0	0	0	0	2	507	507	510	31	0	
7	0	0	0	0	0	503	508	513	32	0	
8	0	0	0	0	0	504	509	512	32	0	
9	0	0	0	0	0	505	512	511	32	0	
10	0	0	0	0	0	504	512	509	31	0	
11	0	0	0	0	0	504	513	511	31	0	
12	0	0	0	0	0	504	511	512	31	0	
13	0	0	0	0	0	504	512	508	32	0	
14	0	0	0	0	2	506	512	507	31	0	
15	0	0	0	0	0	507	511	505	31	0	
0	0	0	0	0	0	508	511	507	31	0	
1	0	0	0	0	0	506	511	507	31	0	
2	0	0	0	0	0	505	512	510	31	0	
3	0	0	0	0	0	503	512	511	31	0	
4	0	0	0	0	0	504	514	512	31	0	
5	0	0	0	0	0	503	512	510	31	0	
6	0	0	0	0	2	505	513	508	31	0	
7	0	0	0	0	0	502	513	511	31	0	
8	0	0	0	0	0	504	512	511	31	0	
9	0	0	0	0	0	507	513	512	31	0	
10	0	0	0	0	0	505	513	512	31	0	
11	0	0	0	0	0	506	512	509	31	0	
12	0	0	0	0	0	505	511	513	31	0	
13	0	0	0	0	0	505	513	509	31	0	
14	0	0	0	0	2	504	511	510	31	0	
15	0	0	0	0	0	504	512	510	32	0	
0	0	0	0	0	0	504	511	510	31	0	
1	0	0	0	0	0	504	512	507	31	0	
2	0	0	0	0	0	504	515	506	31	0	
3	0	0	0	0	0	502	514	508	31	0	
4	0	0	0	0	0	505	514	507	31	0	
5	0	0	0	0	0	507	514	506	31	0	
6	0	0	0	0	2	508	514	507	31	0	
7	0	0	0	0	0	507	514	508	31	0	
8	0	0	0	0	0	508	512	509	31	0	
9	0	0	0	0	0	505	512	511	32	0	
10	0	0	0	0	0	506	512	510	31	0	
11	0	0	0	0	0	505	513	509	31	0	
12	0	0	0	0	0	504	511	509	31	0	
13	0	0	0	0	0	504	513	511	31	0	
14	0	0	0	0	2	504	509	510	31	0	
15	0	0	0	0	0	502	510	507	31	0	
0	0	0	0	0	0	505	510	508	31	0	
1	0	0	0	0	0	503	510	510	31	0	
2	0	0	0	0	0	502	508	508	32	0	
3	0	0	0	0	0	502	509	511	32	0	
4	0	0	0	0	0	504	512	510	32	0	
5	0	0	0	0	0	506	515	510	31	0	
6	0	0	0	0	2	507	513	508	31	0	
7	0	0	0	0	0	508	514	507	31	0	
8	0	0	0	0	0	507	514	510	31	0	
9	0	0	0	0	0	505	512	510	31	0	
10	0	0	0	0	0	507	512	511	31	0	
11	0	0	0	0	0	505	511	510	31	0	
12	0	0	0	0	0	506	510	510	31	0	
13	0	0	0	0	0	506	511	510	31	0	
14	0	0	0	0	1	505	511	511	32	0	
15	0	0	0	0	0	505	511	508	32	0	
0	0	0	0	0	0	505	512	508	32	0	
1	0	0	0	0	0	506	511	507	31	0	
2	0	0	0	0	0	504	512	510	31	0	
3	0	0	0	0	0	506	513	507	31	0	
4	0	0	0	0	0	504	518	508	31	0	
5	0	0	0	0	0	503	513	510	31	0	
6	0	0	0	0	1	505	511	506	31	0	
7	0	0	0	0	0	503	512	509	32	0	
8	0	0	0	0	0	505	513	512	32	0	
9	0	0	0	0	0	507	512	512	32	0	
10	0	0	0	0	0	507	513	509	32	0	
11	0	0	0	0	0	505	511	511	31	0	
12	0	0	0	0	0	504	512	509	31	0	
13	0	0	0	0	0	505	510	509	31	0	
14	0	0	0	0	3	504	511	508	31	0	
15	0	0	0	0	0	504	510	508	31	0	
0	0	0	0	0	0	507	512	508	31	0	
1	0	0	0	0	0	507	512	508	31	0	
2	0	0	0	0	0	506	512	507	31	0	
3	0	0	0	0	0	507	511	510	31	0	
4	0	0	0	0	0	505	511	506	31	0	
5	0	0	0	0	0	503	510	507	31	0	
6	0	0	0	0	2	505	512	508	31	0	
7	0	0	0	0	0	504	512	511	31	0	
8	0	0	0	0	0	505	511	511	31	0	
9	0	0	0	0	0	502	513	514	31	0	
10	0	0	0	0	0	501	512	513	31	0	
11	0	0	0	0	0	502	512	514	31	0	
12	0	0	0	0	0	503	512	510	31	0	
13	0	0	0	0	0	506	512	511	31	0	
14	0	0	0	0	3	508	512	509	31	0	
15	0	0	0	0	0	508	511	507	31	0	
0	0	0	0	0	0	505	508	507	31	0	
1	0	0	0	0	0	505	512	510	31	0	
2	0	0	0	0	0	506	512	510	32	0	
3	0	0	0	0	0	507	513	510	31	0	
4	0	0	0	0	0	503	512	508	31	0	
5	0	0	0	0	0	507	514	507	31	0	
6	0	0	0	0	2	507	514	507	31	0	
7	0	0	0	0	0	504	513	507	31	0	
8	0	0	0	0	0	505	511	511	31	0	
9	0	0	0	0	0	507	512	510	31	0	
10	0	0	0	0	0	507	511	510	31	0	
11	0	0	0	0	0	508	511	509	31	0	
12	0	0	0	0	0	506	511	510	31	0	
13	0	0	0	0	0	505	512	508	31	0	
14	0	0	0	0	2	507	512	511	31	0	
15	0	0	0	0	0	505	513	510	31	0	
0	0	0	0	0	0	505	512	508	31	0	
1	0	0	0	0	0	505	511	507	31	0	
2	0	0	0	0	0	504	513	507	31	0	
3	0	0	0	0	0	503	512	512	32	0	
4	0	0	0	0	0	505	512	509	31	0	
5	0	0	0	0	0	504	511	508	31	0	
6	0	0	0	0	3	506	512	510	31	0	
7	0	0	0	0	0	505	513	511	31	0	
8	0	0	0	0	0	505	511	512	32	0	
9	0	0	0	0	0	504	511	509	31	0	
10	0	0	0	0	0	503	513	511	31	0	
11	0	0	0	0	0	503	512	510	32	0	
12	0	0	0	0	0	506	511	511	31	0	
13	0	0	0	0	0	505	510	510	31	0	
14	0	0	0	0	2	505	510	513	31	0	
15	0	0	0	0	0	504	514	510	31	0	
0	0	0	0	0	0	505	511	508	32	0	
1	0	0	0	0	0	506	514	509	31	0	
2	0	0	0	0	0	504	515	509	31	0	
3	0	0	0	0	0	504	514	507	31	0	
4	0	0	0	0	0	506	510	507	31	0	
5	0	0	0	0	0	506	512	506	31	0	
6	0	0	0	0	3	507	510	508	31	0	
7	0	0	0	0	0	508	509	506	31	0	
8	0	0	0	0	0	506	510	508	31	0	
9	0	0	0	0	0	504	511	509	31	0	
10	0	0	0	0	0	506	512	512	31	0	
11	0	0	0	0	0	507	512	511	32	0	
12	0	0	0	0	0	504	512	512	32	0	
13	0	0	0	0	0	506	514	512	32	0	
14	0	0	0	0	2	504	512	509	31	0	
15	0	0	0	0	0	503	512	511	31	0	
0	0	0	0	0	0	504	513	509	31	0	
1	0	0	0	0	0	503	512	509	31	0	
2	0	0	0	0	0	504	512	508	31	0	
3	0	0	0	0	0	504	511	507	31	0	
4	0	0	0	0	0	504	513	508	31	0	
5	0	0	0	0	0	506	511	509	31	0	
6	0	0	0	0	2	504	512	509	31	0	
7	0	0	0	0	0	505	512	510	31	0	
8	0	0	0	0	0	507	512	509	31	0	
9	0	0	0	0	0	505	512	506	31	0	
10	0	0	0	0	0	504	513	508	31	0	
11	0	0	0	0	0	506	513	512	31	0	
12	0	0	0	0	0	505	514	513	32	0	
13	0	0	0	0	0	506	512	510	31	0	
14	0	0	0	0	2	506	513	510	31	0	
15	0	0	0	0	0	504	511	507	31	0	
0	0	0	0	0	0	504	509	509	31	0	
1	0	0	0	0	0	505	512	510	31	0	
2	0	0	0	0	0	505	509	508	31	0	
3	0	0	0	0	0	505	510	507	32	0	
4	0	0	0	0	0	505	509	508	31	0	
5	0	0	0	0	0	502	510	508	31	0	
6	0	0	0	0	1	505	512	508	31	0	
7	0	0	0	0	0	505	515	508	31	0	
8	0	0	0	0	0	505	515	508	31	0	
9	0	0	0	0	0	504	515	508	31	0	
10	0	0	0	0	0	505	513	509	31	0	
11	0	0	0	0	0	504	512	510	31	0	
12	0	0	0	0	0	507	508	515	32	0	
13	0	0	0	0	0	505	509	510	31	0	
14	0	0	0	0	1	504	512	512	32	0	
15	0	0	0	0	0	505	516	511	31	0	
0	0	0	0	0	0	504	517	510	31	0	
1	0	0	0	0	0	504	516	504	31	0	
2	0	0	0	0	0	507	511	507	31	0	
3	0	0	0	0	0	506	510	507	32	0	
4	0	0	0	0	0	504	507	508	31	0	
5	0	0	0	0	0	504	509	508	32	0	
6	0	0	0	0	1	506	510	506	31	0	
7	0	0	0	0	0	506	510	509	31	0	
8	0	0	0	0	0	507	512	508	31	0	
9	0	0	0	0	0	507	510	508	31	0	
10	0	0	0	0	0	507	511	508	31	0	
11	0	0	0	0	0	505	512	508	31	0	
12	0	0	0	0	0	507	516	511	31	0	
13	0	0	0	0	0	505	513	510	31	0	
14	0	0	0	0	2	505	514	511	31	0	
15	0	0	0	0	0	502	514	511	31	0	
0	0	0	0	0	0	504	513	512	31	0	
1	0	0	0	0	0	504	513	511	31	0	
2	0	0	0	0	0	504	512	511	31	0	
3	0	0	0	0	0	505	510	512	32	0	
4	0	0	0	0	0	504	510	511	32	0	
5	0	0	0	0	0	506	514	508	31	0	
6	0	0	0	0	2	506	513	510	31	0	
7	0	0	0	0	0	504	511	513	32	0	
8	0	0	0	0	0	505	513	508	31	0	
9	0	0	0	0	0	505	511	512	31	0	
10	0	0	0	0	0	507	511	508	31	0	
11	0	0	0	0	0	505	512	507	31	0	
12	0	0	0	0	0	505	513	510	31	0	
13	0	0	0	0	0	503	511	509	31	0	
14	0	0	0	0	2	503	514	507	31	0	
15	0	0	0	0	0	504	513	506	31	0	
0	0	0	0	0	0	506	512	508	31	0	
1	0	0	0	0	0	508	514	510	31	0	
2	0	0	0	0	0	507	509	509	31	0	
3	0	0	0	0	0	508	511	508	31	0	
4	0	0	0	0	0	505	512	508	31	0	
5	0	0	0	0	0	503	512	507	31	0	
6	0	0	0	0	3	504	512	508	31	0	
7	0	0	0	0	0	506	511	510	31	0	
8	0	0	0	0	0	503	511	513	31	0	
9	0	0	0	0	0	503	509	513	31	0	
10	0	0	0	0	0	503	511	510	31	0	
11	0	0	0	0	0	505	510	510	31	0	
12	0	0	0	0	0	505	511	508	31	0	
13	0	0	0	0	0	504	513	508	32	0	
14	0	0	0	0	2	507	515	509	31	0	
15	0	0	0	0	0	504	513	507	31	0	
0	0	0	0	0	0	503	512	509	31	0	
1	0	0	0	0	0	503	516	511	31	0	
2	0	0	0	0	0	504	516	511	31	0	
3	0	0	0	0	0	504	515	507	31	0	
4	0	0	0	0	0	504	511	509	31	0	
5	0	0	0	0	0	506	508	507	31	0	
6	0	0	0	0	2	505	508	510	31	0	
7	0	0	0	0	0	507	507	508	31	0	
8	0	0	0	0	0	507	506	508	31	0	
9	0	0	0	0	0	506	510	511	31	0	
10	0	0	0	0	0	507	516	510	31	0	
11	0	0	0	0	0	505	521	508	31	0	
12	0	0	0	0	0	507	518	508	31	0	
13	0	0	0	0	0	506	514	508	31	0	
14	0	0	0	0	2	507	510	508	31	0	
15	0	0	0	0	0	508	511	508	31	0	
0	0	0	0	0	0	508	509	510	31	0	
1	0	0	0	0	0	504	511	513	31	0	
2	0	0	0	0	0	504	512	510	31	0	
3	0	0	0	0	0	503	515	509	31	0	
4	0	0	0	0	0	504	511	510	31	0	
5	0	0	0	0	0	506	512	508	31	0	
6	0	0	0	0	3	505	510	508	32	0	
7	0	0	0	0	0	505	509	512	32	0	
8	0	0	0	0	0	505	511	505	31	0	
9	0	0	0	0	0	505	512	504	31	0	
10	0	0	0	0	0	505	513	509	32	0	
11	0	0	0	0	0	506	513	511	31	0	
12	0	0	0	0	0	505	513	510	31	0	
13	0	0	0	0	0	499	511	511	31	0	
14	0	0	0	0	3	500	510	512	31	0	
15	0	0	0	0	0	499	507	509	31	0	
0	0	0	0	0	0	504	510	508	31	0	
1	0	0	0	0	0	505	513	509	31	0	
2	0	0	0	0	0	506	514	507	32	0	
3	0	0	0	0	0	507	515	510	32	0	
4	0	0	0	0	0	507	513	510	32	0	
5	0	0	0	0	0	504	514	508	32	0	
6	0	0	0	0	2	506	513	509	31	0	
7	0	0	0	0	0	505	512	508	31	0	
8	0	0	0	0	0	506	511	509	31	0	
9	0	0	0	0	0	507	511	511	31	0	
10	0	0	0	0	0	507	511	511	31	0	
11	0	0	0	0	0	509	511	510	31	0	
12	0	0	0	0	0	507	512	507	31	0	
13	0	0	0	0	0	504	510	507	31	0	
14	0	0	0	0	2	504	511	508	31	0	
15	0	0	0	0	0	504	511	510	31	0	
0	0	0	0	0	0	504	518	509	31	0	
1	0	0	0	0	0	506	520	509	31	0	
2	0	0	0	0	0	503	519	509	31	0	
3	0	0	0	0	0	505	513	509	31	0	
4	0	0	0	0	0	503	512	510	31	0	
5	0	0	0	0	0	504	508	508	31	0	
6	0	0	0	0	1	504	510	509	31	0	
7	0	0	0	0	0	504	509	511	31	0	
8	0	0	0	0	0	503	511	509	31	0	
9	0	0	0	0	0	504	509	510	32	0	
10	0	0	0	0	0	503	512	509	31	0	
11	0	0	0	0	0	504	514	508	31	0	
12	0	0	0	0	0	508	516	507	31	0	
13	0	0	0	0	0	509	513	506	31	0	
14	0	0	0	0	1	510	512	507	31	0	
15	0	0	0	0	0	507	513	507	31	0	
0	0	0	0	0	0	508	511	510	31	0	
1	0	0	0	0	0	506	507	508	31	0	
2	0	0	0	0	0	505	505	511	31	0	
3	0	0	0	0	0	503	509	511	31	0	
4	0	0	0	0	0	504	513	511	31	0	
5	0	0	0	0	0	504	513	512	32	0	
6	0	0	0	0	1	504	511	510	31	0	
7	0	0	0	0	0	504	512	510	31	0	
8	0	0	0	0	0	506	515	510	32	0	
9	0	0	0	0	0	507	513	507	31	0	
10	0	0	0	0	0	504	511	509	31	0	
11	0	0	0	0	0	504	508	508	31	0	
12	0	0	0	0	0	503	510	509	31	0	
13	0	0	0	0	0	503	510	511	31	0	
14	0	0	0	0	2	505	513	510	31	0	
15	0	0	0	0	0	504	514	509	31	0	
0	0	0	0	0	0	507	515	510	31	0	
1	0	0	0	0	0	508	515	509	31	0	
2	0	0	0	0	0	504	515	512	31	0	
3	0	0	0	0	0	503	512	511	31	0	
4	0	0	0	0	0	505	512	510	31	0	
5	0	0	0	0	0	504	513	508	31	0	
6	0	0	0	0	2	503	512	509	31	0	
7	0	0	0	0	0	504	511	507	31	0	
8	0	0	0	0	0	506	508	509	31	0	
9	0	0	0	0	0	507	510	510	31	0	
10	0	0	0	0	0	507	512	508	31	0	
11	0	0	0	0	0	505	511	510	31	0	
12	0	0	0	0	0	504	510	508	31	0	
13	0	0	0	0	0	507	515	507	31	0	
14	0	0	0	0	2	503	522	508	31	0	
15	0	0	0	0	0	503	520	510	31	0	
0	0	0	0	0	0	504	516	510	31	0	
1	0	0	0	0	0	504	515	510	31	0	
2	0	0	0	0	0	506	512	510	31	0	
3	0	0	0	0	0	505	510	507	31	0	
4	0	0	0	0	0	507	508	508	31	0	
5	0	0	0	0	0	507	507	510	31	0	
6	0	0	0	0	2	505	507	508	31	0	
7	0	0	0	0	0	505	504	508	31	0	
8	0	0	0	0	0	504	505	515	32	0	
9	0	0	0	0	0	504	508	515	32	0	
10	0	0	0	0	0	504	513	515	32	0	
11	0	0	0	0	0	503	512	512	32	0	
12	0	0	0	0	0	503	515	509	32	0	
13	0	0	0	0	0	504	514	509	32	0	
14	0	0	0	0	2	504	515	507	31	0	
15	0	0	0	0	0	507	512	505	31	0	
0	0	0	0	0	0	508	512	507	31	0	
1	0	0	0	0	0	508	514	506	31	0	
2	0	0	0	0	0	509	512	504	31	0	
3	0	0	0	0	0	507	512	507	31	0	
4	0	0	0	0	0	503	512	510	31	0	
5	0	0	0	0	0	502	511	510	31	0	
6	0	0	0	0	2	503	512	511	31	0	
7	0	0	0	0	0	504	511	513	31	0	
8	0	0	0	0	0	505	510	511	31	0	
9	0	0	0	0	0	505	509	507	31	0	
10	0	0	0	0	0	506	510	510	31	0	
11	0	0	0	0	0	505	512	512	31	0	
12	0	0	0	0	0	505	519	510	31	0	
13	0	0	0	0	0	508	526	508	31	0	
14	0	0	0	0	2	505	524	506	31	0	
15	0	0	0	0	0	504	518	505	31	0	
0	0	0	0	0	0	504	512	505	31	0	
1	0	0	0	0	0	504	508	509	32	0	
2	0	0	0	0	0	507	503	508	32	0	
3	0	0	0	0	0	507	501	510	32	0	
4	0	0	0	0	0	507	500	511	32	0	
5	0	0	0	0	0	507	508	511	31	0	
6	0	0	0	0	2	505	512	514	31	0	
7	0	0	0	0	0	506	513	513	31	0	
8	0	0	0	0	0	505	518	511	31	0	
9	0	0	0	0	0	503	519	508	31	0	
10	0	0	0	0	0	502	519	508	31	0	
11	0	0	0	0	0	502	515	508	31	0	
12	0	0	0	0	0	500	512	509	31	0	
13	0	0	0	0	0	503	513	509	31	0	
14	0	0	0	0	2	502	509	510	31	0	
15	0	0	0	0	0	504	508	508	31	0	
0	0	0	0	0	0	512	510	504	32	0	
1	0	0	0	0	0	513	512	508	31	0	
2	0	0	0	0	0	512	510	509	31	0	
3	0	0	0	0	0	509	511	509	31	0	
4	0	0	0	0	0	504	510	508	31	0	
5	0	0	0	0	0	503	512	511	32	0	
6	0	0	0	0	2	502	512	512	31	0	
7	0	0	0	0	0	503	508	511	31	0	
8	0	0	0	0	0	503	510	511	31	0	
9	0	0	0	0	0	504	510	508	31	0	
10	0	0	0	0	0	504	513	509	31	0	
11	0	0	0	0	0	505	516	508	31	0	
12	0	0	0	0	0	507	515	509	31	0	
13	0	0	0	0	0	503	514	507	31	0	
14	0	0	0	0	2	504	517	509	31	0	
15	0	0	0	0	0	507	518	506	31	0	
0	0	0	0	0	0	505	515	504	31	0	
1	0	0	0	0	0	506	513	508	31	0	
2	0	0	0	0	0	506	509	511	31	0	
3	0	0	0	0	0	507	509	508	31	0	
4	0	0	0	0	0	505	509	510	31	0	
5	0	0	0	0	0	505	509	508	31	0	
6	0	0	0	0	1	503	507	511	32	0	
7	0	0	0	0	0	501	510	513	32	0	
8	0	0	0	0	0	503	512	511	32	0	
9	0	0	0	0	0	503	511	514	32	0	
10	0	0	0	0	0	507	512	510	32	0	
11	0	0	0	0	0	504	512	511	31	0	
12	0	0	0	0	0	503	511	511	31	0	
13	0	0	0	0	0	501	511	511	31	0	
14	0	0	0	0	1	505	514	508	31	0	
15	0	0	0	0	0	508	514	507	31	0	
0	0	0	0	0	0	508	513	508	31	0	
1	0	0	0	0	0	506	511	509	31	0	
2	0	0	0	0	0	508	513	508	31	0	
3	0	0	0	0	0	507	513	506	31	0	
4	0	0	0	0	0	507	512	508	31	0	
5	0	0	0	0	0	507	511	507	31	0	
6	0	0	0	0	2	507	512	508	32	0	
7	0	0	0	0	0	505	513	511	32	0	
8	0	0	0	0	0	504	513	512	31	0	
9	0	0	0	0	0	504	513	512	31	0	
10	0	0	0	0	0	504	514	513	31	0	
11	0	0	0	0	0	505	510	508	31	0	
12	0	0	0	0	0	505	515	507	31	0	
13	0	0	0	0	0	505	512	507	31	0	
14	0	0	0	0	2	506	512	507	31	0	
15	0	0	0	0	0	504	511	506	31	0	
0	0	0	0	0	0	504	510	508	31	0	
1	0	0	0	0	0	504	510	507	32	0	
2	0	0	0	0	0	504	511	511	31	0	
3	0	0	0	0	0	504	510	511	31	0	
4	0	0	0	0	0	504	512	510	31	0	
5	0	0	0	0	0	503	511	512	31	0	
6	0	0	0	0	2	505	511	506	31	0	
7	0	0	0	0	0	506	513	510	31	0	
8	0	0	0	0	0	503	515	511	31	0	
9	0	0	0	0	0	503	513	510	31	0	
10	0	0	0	0	0	502	512	511	31	0	
11	0	0	0	0	0	506	510	510	31	0	
12	0	0	0	0	0	504	511	509	31	0	
13	0	0	0	0	0	507	513	510	31	0	
14	0	0	0	0	2	507	510	509	31	0	
15	0	0	0	0	0	507	510	508	31	0	
0	0	0	0	0	0	507	510	508	31	0	
1	0	0	0	0	0	506	513	506	31	0	
2	0	0	0	0	0	505	515	507	31	0	
3	0	0	0	0	0	506	515	508	31	0	
4	0	0	0	0	0	505	512	508	31	0	
5	0	0	0	0	0	505	513	509	31	0	
6	0	0	0	0	2	507	513	508	31	0	
7	0	0	0	0	0	505	511	510	31	0	
8	0	0	0	0	0	500	511	513	31	0	
9	0	0	0	0	0	504	511	512	31	0	
10	0	0	0	0	0	504	510	510	31	0	
11	0	0	0	0	0	503	511	511	31	0	
12	0	0	0	0	0	504	512	510	32	0	
13	0	0	0	0	0	505	510	512	31	0	
14	0	0	0	0	2	506	513	511	32	0	
15	0	0	0	0	0	504	513	513	31	0	
0	0	0	0	0	0	504	513	511	31	0	
1	0	0	0	0	0	504	512	511	31	0	
2	0	0	0	0	0	506	512	507	31	0	
3	0	0	0	0	0	506	512	506	31	0	
4	0	0	0	0	0	506	510	505	31	0	
5	0	0	0	0	0	504	511	505	31	0	
6	0	0	0	0	2	508	509	509	31	0	
7	0	0	0	0	0	506	510	509	32	0	
8	0	0	0	0	0	507	514	509	31	0	
9	0	0	0	0	0	504	514	508	31	0	
10	0	0	0	0	0	506	515	507	31	0	
11	0	0	0	0	0	505	515	512	31	0	
12	0	0	0	0	0	505	514	508	31	0	
13	0	0	0	0	0	504	515	512	31	0	
14	0	0	0	0	3	503	511	512	31	0	
15	0	0	0	0	0	502	512	511	31	0	
0	0	0	0	0	0	505	512	511	31	0	
1	0	0	0	0	0	507	513	508	31	0	
2	0	0	0	0	0	505	516	505	31	0	
3	0	0	0	0	0	505	512	504	31	0	
4	0	0	0	0	0	506	509	508	31	0	
5	0	0	0	0	0	505	510	509	31	0	
6	0	0	0	0	2	505	508	511	31	0	
7	0	0	0	0	0	507	510	511	32	0	
8	0	0	0	0	0	507	507	511	32	0	
9	0	0	0	0	0	504	511	512	31	0	
10	0	0	0	0	0	502	510	512	31	0	
11	0	0	0	0	0	505	512	512	31	0	
12	0	0	0	0	0	506	514	509	31	0	
13	0	0	0	0	0	508	515	510	31	0	
14	0	0	0	0	2	508	511	508	31	0	
15	0	0	0	0	0	508	512	505	31	0	
0	0	0	0	0	0	505	511	505	31	0	
1	0	0	0	0	0	504	511	506	31	0	
2	0	0	0	0	0	505	511	503	31	0	
3	0	0	0	0	0	505	513	507	31	0	
4	0	0	0	0	0	506	512	507	31	0	
5	0	0	0	0	0	503	513	509	32	0	
6	0	0	0	0	2	504	512	510	31	0	
7	0	0	0	0	0	503	513	512	31	0	
8	0	0	0	0	0	504	513	515	31	0	
9	0	0	0	0	0	500	512	512	31	0	
10	0	0	0	0	0	501	511	512	31	0	
11	0	0	0	0	0	506	512	510	31	0	
12	0	0	0	0	0	508	512	510	31	0	
13	0	0	0	0	0	507	512	510	31	0	
14	0	0	0	0	1	505	511	512	31	0	
15	0	0	0	0	0	504	508	512	31	0	
0	0	0	0	0	0	505	510	510	31	0	
1	0	0	0	0	0	503	509	508	32	0	
2	0	0	0	0	0	504	510	508	31	0	
3	0	0	0	0	0	506	513	508	31	0	
4	0	0	0	0	0	506	513	507	31	0	
5	0	0	0	0	0	505	515	508	31	0	
6	0	0	0	0	1	505	515	508	31	0	
7	0	0	0	0	0	507	515	507	31	0	
8	0	0	0	0	0	505	513	508	32	0	
9	0	0	0	0	0	507	513	509	31	0	
10	0	0	0	0	0	507	515	513	31	0	
11	0	0	0	0	0	507	515	508	31	0	
12	0	0	0	0	0	506	515	508	31	0	
13	0	0	0	0	0	507	514	508	31	0	
14	0	0	0	0	1	507	512	507	31	0	
15	0	0	0	0	0	507	510	506	31	0	
0	0	0	0	0	0	507	508	510	31	0	
1	0	0	0	0	0	505	509	510	32	0	
2	0	0	0	0	0	505	509	509	31	0	
3	0	0	0	0	0	506	508	508	31	0	
4	0	0	0	0	0	503	508	506	31	0	
5	0	0	0	0	0	505	511	508	31	0	
6	0	0	0	0	2	504	512	508	32	0	
7	0	0	0	0	0	503	515	510	32	0	
8	0	0	0	0	0	504	513	510	31	0	
9	0	0	0	0	0	505	513	511	31	0	
10	0	0	0	0	0	504	513	509	31	0	
11	0	0	0	0	0	504	514	512	31	0	
12	0	0	0	0	0	505	513	512	31	0	
13	0	0	0	0	0	506	516	512	32	0	
14	0	0	0	0	2	504	516	512	32	0	
15	0	0	0	0	0	506	515	511	31	0	
0	0	0	0	0	0	507	513	506	31	0	
1	0	0	0	0	0	508	511	507	31	0	
2	0	0	0	0	0	505	512	507	31	0	
3	0	0	0	0	0	505	512	504	31	0	
4	0	0	0	0	0	506	509	505	31	0	
5	0	0	0	0	0	502	510	510	32	0	
6	0	0	0	0	2	502	508	515	32	0	
7	0	0	0	0	0	503	511	511	31	0	
8	0	0	0	0	0	507	512	510	31	0	
9	0	0	0	0	0	504	513	509	31	0	
10	0	0	0	0	0	506	509	510	31	0	
11	0	0	0	0	0	504	510	508	31	0	
12	0	0	0	0	0	503	510	508	32	0	
13	0	0	0	0	0	504	514	507	31	0	
14	0	0	0	0	2	506	513	508	31	0	
15	0	0	0	0	0	506	512	507	31	0	
0	0	0	0	0	0	507	511	508	31	0	
1	0	0	0	0	0	508	512	510	31	0	
2	0	0	0	0	0	508	511	510	32	0	
3	0	0	0	0	0	508	512	511	31	0	
4	0	0	0	0	0	505	511	509	31	0	
5	0	0	0	0	0	505	511	508	31	0	
6	0	0	0	0	2	505	511	507	31	0	
7	0	0	0	0	0	504	512	508	31	0	
8	0	0	0	0	0	507	511	508	31	0	
9	0	0	0	0	0	507	515	511	31	0	
10	0	0	0	0	0	505	513	510	31	0	
11	0	0	0	0	0	506	513	510	32	0	
12	0	0	0	0	0	507	514	511	31	0	
13	0	0	0	0	0	504	514	513	31	0	
14	0	0	0	0	2	504	514	512	31	0	
15	0	0	0	0	0	504	512	511	31	0	
0	0	0	0	0	0	504	512	511	31	0	
1	0	0	0	0	0	505	510	508	31	0	
2	0	0	0	0	0	503	510	508	31	0	
3	0	0	0	0	0	502	513	505	31	0	
4	0	0	0	0	0	501	512	505	31	0	
5	0	0	0	0	0	504	512	510	31	0	
6	0	0	0	0	2	504	513	510	32	0	
7	0	0	0	0	0	503	514	510	31	0	
8	0	0	0	0	0	503	514	509	31	0	
9	0	0	0	0	0	507	512	511	31	0	
10	0	0	0	0	0	509	511	510	32	0	
11	0	0	0	0	0	508	513	508	31	0	
12	0	0	0	0	0	507	510	507	31	0	
13	0	0	0	0	0	507	511	508	31	0	
14	0	0	0	0	3	506	509	507	31	0	
15	0	0	0	0	0	508	507	507	31	0	
0	0	0	0	0	0	504	510	511	31	0	
1	0	0	0	0	0	504	510	512	32	0	
2	0	0	0	0	0	504	510	509	31	0	
3	0	0	0	0	0	504	512	509	31	0	
4	0	0	0	0	0	504	512	510	31	0	
5	0	0	0	0	0	505	513	507	31	0	
6	0	0	0	0	2	504	513	506	31	0	
7	0	0	0	0	0	504	514	508	31	0	
8	0	0	0	0	0	504	515	507	31	0	
9	0	0	0	0	0	505	515	508	31	0	
10	0	0	0	0	0	506	515	509	32	0	
11	0	0	0	0	0	503	515	512	31	0	
12	0	0	0	0	0	505	512	512	31	0	
13	0	0	0	0	0	507	511	511	31	0	
14	0	0	0	0	2	506	509	510	31	0	
15	0	0	0	0	0	507	508	508	31	0	
0	0	0	0	0	0	507	510	508	31	0	
1	0	0	0	0	0	508	511	510	32	0	
2	0	0	0	0	0	505	512	509	32	0	
3	0	0	0	0	0	501	514	511	31	0	
4	0	0	0	0	0	503	513	511	31	0	
5	0	0	0	0	0	504	514	512	31	0	
6	0	0	0	0	2	502	515	511	31	0	
7	0	0	0	0	0	503	515	511	31	0	
8	0	0	0	0	0	503	515	511	31	0	
9	0	0	0	0	0	506	513	508	31	0	
10	0	0	0	0	0	508	512	508	31	0	
11	0	0	0	0	0	506	512	504	31	0	
12	0	0	0	0	0	506	509	504	31	0	
13	0	0	0	0	0	505	509	507	31	0	
14	0	0	0	0	1	505	510	510	31	0	
15	0	0	0	0	0	504	512	511	31	0	
0	0	0	0	0	0	505	514	510	31	0	
1	0	0	0	0	0	509	512	510	31	0	
2	0	0	0	0	0	505	516	511	31	0	
3	0	0	0	0	0	506	513	512	31	0	
4	0	0	0	0	0	507	510	511	32	0	
5	0	0	0	0	0	503	511	511	32	0	
6	0	0	0	0	1	503	510	508	32	0	
7	0	0	0	0	0	506	511	509	31	0	
8	0	0	0	0	0	506	511	508	31	0	
9	0	0	0	0	0	504	511	508	31	0	
10	0	0	0	0	0	503	510	508	31	0	
11	0	0	0	0	0	504	510	509	31	0	
12	0	0	0	0	0	506	512	513	31	0	
13	0	0	0	0	0	504	512	506	31	0	
14	0	0	0	0	1	506	513	505	31	0	
15	0	0	0	0	0	505	516	507	31	0	
0	0	0	0	0	0	505	517	508	31	0	
1	0	0	0	0	0	503	515	510	31	0	
2	0	0	0	0	0	502	511	512	31	0	
3	0	0	0	0	0	505	508	509	31	0	
4	0	0	0	0	0	506	508	508	31	0	
5	0	0	0	0	0	508	510	505	32	0	
6	0	0	0	0	3	505	510	508	31	0	
7	0	0	0	0	0	505	512	506	31	0	
8	0	0	0	0	0	505	512	510	31	0	
9	0	0	0	0	0	504	513	511	31	0	
10	0	0	0	0	0	504	511	509	31	0	
11	0	0	0	0	0	505	512	510	31	0	
12	0	0	0	0	0	504	510	508	31	0	
13	0	0	0	0	0	504	510	504	31	0	
14	0	0	0	0	2	504	513	506	31	0	
15	0	0	0	0	0	505	511	511	31	0	
0	0	0	0	0	0	505	510	511	32	0	
1	0	0	0	0	0	507	515	513	32	0	
2	0	0	0	0	0	507	515	512	32	0	
3	0	0	0	0	0	505	515	514	32	0	
4	0	0	0	0	0	504	512	512	32	0	
5	0	0	0	0	0	507	514	509	31	0	
6	0	0	0	0	2	506	513	508	31	0	
7	0	0	0	0	0	505	513	508	31	0	
8	0	0	0	0	0	507	513	505	31	0	
9	0	0	0	0	0	504	513	508	32	0	
